ADC0, ADC1
0030,0030
0050,0041
0037,0038
0038,0038
0038,0036
0037,0037
0038,0037
0038,0039
0038,0039
0038,0038
0037,0037
0038,0038
0038,0038
0038,0037
0038,0038
0036,0037
0037,0037
0037,0040
0039,0035
0035,0036
0037,0036
0038,0039
0036,0035
0039,0037
0033,0038
0036,0037
0037,0036
0036,0037
0038,0036
0037,0037
0038,0037
0035,0036
0037,0036
0036,0035
0036,0035
0037,0037
0037,0035
0036,0036
0036,0035
0036,0036
0036,0036
0037,0037
0036,0036
0035,0036
0037,0038
0038,0037
0038,0038
0040,0038
0036,0038
0027,0040
0038,0039
0038,0038
0038,0037
0039,0037
0039,0038
0037,0038
0038,0041
0037,0036
0038,0040
0037,0037
0038,0038
0037,0036
0037,0037
0037,0037
0038,0036
0032,0047
0035,0038
0036,0036
0038,0036
0036,0037
0035,0038
0037,0037
0037,0037
0037,0037
0037,0037
0036,0036
0037,0036
0037,0036
0037,0037
0038,0037
0038,0035
0038,0040
0033,0038
0039,0038
0039,0037
0038,0038
0039,0038
0037,0038
0037,0039
0041,0039
0035,0039
0038,0037
0039,0040
0037,0040
0038,0039
0039,0038
0038,0037
0039,0039
0039,0039
0038,0039
0040,0040
0041,0041
0041,0041
0043,0040
0042,0040
0041,0041
0041,0042
0041,0039
0043,0041
0042,0041
0043,0042
0042,0042
0043,0043
0042,0043
0043,0043
0045,0044
0043,0044
0044,0044
0044,0045
0045,0045
0045,0045
0044,0045
0045,0047
0045,0046
0056,0045
0047,0045
0057,0044
0045,0046
0043,0045
0048,0045
0049,0045
0045,0047
0046,0045
0045,0045
0045,0044
0046,0046
0042,0046
0046,0047
0046,0046
0046,0045
0045,0046
0044,0045
0046,0046
0045,0046
0048,0048
0048,0046
0048,0047
0046,0046
0047,0045
0045,0044
0045,0047
0043,0046
0044,0046
0046,0046
0048,0044
0044,0045
0046,0045
0044,0045
0044,0045
0046,0046
0046,0047
0046,0051
0043,0045
0048,0046
0047,0046
0048,0048
0046,0048
0047,0047
0047,0049
0051,0047
0057,0050
0048,0046
0050,0047
0046,0048
0046,0048
0047,0048
0050,0049
0045,0040
0047,0047
0048,0046
0055,0048
0044,0047
0054,0048
0048,0048
0046,0049
0048,0046
0047,0047
0049,0048
0048,0059
0050,0051
0050,0051
0048,0047
0050,0049
0049,0048
0053,0050
0050,0047
0055,0049
0051,0048
0050,0049
0050,0051
0050,0051
0045,0049
0049,0049
0050,0049
0051,0051
0049,0049
0048,0048
0048,0049
0048,0048
0048,0050
0041,0049
0049,0050
0048,0049
0049,0048
0051,0051
0050,0051
0050,0049
0050,0050
0051,0052
0054,0050
0039,0048
0049,0049
0050,0050
0050,0048
0048,0049
0050,0051
0050,0048
0049,0050
0049,0048
0049,0049
0046,0058
0048,0050
0045,0052
0047,0048
0052,0043
0048,0048
0046,0051
0048,0047
0046,0050
0048,0050
0048,0048
0048,0048
0048,0049
0047,0050
0039,0048
0047,0048
0049,0049
0049,0049
0051,0053
0048,0049
0050,0051
0050,0050
0048,0048
0047,0049
0050,0047
0049,0047
0049,0049
0048,0047
0049,0048
0048,0046
0056,0050
0049,0049
0048,0050
0050,0051
0049,0048
0049,0050
0049,0045
0050,0049
0050,0050
0051,0051
0050,0049
0051,0050
0050,0051
0049,0049
0048,0046
0052,0051
0051,0041
0050,0051
0051,0051
0051,0050
0048,0047
0050,0050
0048,0049
0049,0048
0047,0050
0050,0050
0047,0053
0051,0049
0049,0050
0050,0048
0048,0048
0049,0049
0051,0044
0050,0050
0048,0051
0049,0051
0051,0052
0052,0051
0050,0052
0045,0051
0054,0049
0051,0052
0051,0052
0051,0050
0048,0050
0050,0050
0050,0049
0051,0051
0050,0055
0050,0050
0052,0050
0050,0050
0050,0050
0050,0049
0051,0051
0049,0050
0051,0048
0053,0051
0051,0049
0044,0050
0052,0051
0050,0049
0048,0048
0050,0059
0052,0050
0050,0050
0049,0044
0049,0049
0050,0049
0049,0050
0049,0048
0049,0050
0048,0049
0049,0049
0049,0046
0049,0051
0049,0049
0049,0050
0049,0051
0049,0049
0050,0049
0051,0050
0047,0050
0051,0049
0047,0047
0050,0049
0050,0049
0049,0050
0046,0049
0049,0049
0049,0051
0050,0049
0049,0049
0049,0049
0049,0048
0047,0046
0048,0049
0048,0049
0049,0049
0047,0049
0051,0049
0048,0048
0048,0049
0049,0049
0049,0048
0049,0049
0048,0049
0052,0048
0051,0048
0047,0048
0049,0048
0040,0048
0050,0050
0048,0046
0049,0048
0048,0050
0048,0048
0049,0049
0048,0049
0047,0048
0050,0047
0051,0044
0049,0050
0049,0051
0048,0050
0050,0049
0048,0049
0047,0049
0049,0049
0050,0049
0050,0049
0057,0049
0051,0049
0044,0050
0046,0049
0050,0052
0050,0049
0053,0048
0050,0049
0048,0048
0050,0050
0051,0050
0050,0048
0049,0053
0049,0049
0047,0051
0051,0050
0051,0052
0050,0051
0049,0048
0051,0050
0051,0060
0051,0050
0052,0050
0050,0050
0049,0048
0049,0052
0048,0050
0050,0049
0052,0049
0051,0050
0051,0049
0051,0049
0050,0051
0050,0050
0056,0045
0051,0050
0052,0050
0050,0051
0050,0052
0050,0051
0054,0048
0051,0051
0051,0052
0053,0051
0050,0052
0051,0052
0052,0051
0052,0053
0052,0053
0056,0053
0054,0052
0052,0053
0051,0051
0052,0054
0051,0062
0052,0052
0055,0052
0052,0053
0052,0053
0053,0053
0053,0054
0053,0052
0052,0054
0053,0053
0054,0053
0052,0051
0054,0054
0051,0050
0053,0052
0052,0050
0053,0051
0052,0052
0049,0053
0051,0051
0050,0049
0051,0051
0051,0052
0050,0050
0051,0049
0051,0049
0048,0050
0050,0050
0050,0050
0051,0049
0048,0050
0049,0051
0050,0050
0050,0050
0050,0051
0051,0050
0050,0050
0049,0049
0050,0051
0049,0050
0050,0050
0049,0050
0057,0048
0049,0048
0051,0049
0049,0050
0049,0047
0050,0049
0049,0049
0046,0049
0048,0049
0048,0049
0049,0048
0048,0045
0054,0048
0048,0047
0041,0047
0046,0048
0049,0048
0048,0047
0046,0049
0048,0048
0044,0052
0046,0047
0047,0046
0047,0046
0045,0032
0045,0046
0046,0046
0045,0045
0046,0046
0047,0046
0047,0044
0045,0043
0046,0052
0045,0045
0048,0046
0046,0046
0050,0047
0045,0046
0047,0046
0048,0048
0046,0051
0047,0046
0047,0048
0046,0047
0049,0052
0047,0046
0046,0046
0046,0045
0052,0046
0045,0044
0046,0047
0047,0045
0044,0044
0045,0044
0043,0042
0045,0046
0045,0044
0046,0045
0043,0044
0045,0045
0045,0051
0044,0045
0049,0045
0045,0043
0044,0045
0044,0044
0044,0043
0045,0044
0044,0044
0043,0043
0045,0044
0044,0043
0045,0044
0043,0044
0043,0045
0044,0043
0045,0040
0042,0043
0043,0041
0042,0042
0042,0043
0041,0042
0040,0035
0041,0038
0043,0042
0042,0043
0042,0042
0043,0043
0044,0047
0044,0044
0043,0043
0042,0043
0042,0043
0041,0042
0042,0042
0042,0042
0043,0042
0042,0044
0043,0039
0044,0044
0045,0044
0044,0043
0042,0046
0044,0043
0043,0043
0036,0044
0045,0044
0045,0043
0043,0043
0045,0044
0044,0044
0045,0046
0045,0044
0045,0044
0047,0045
0044,0045
0045,0044
0045,0044
0046,0044
0045,0044
0045,0045
0045,0044
0044,0044
0045,0045
0043,0046
0045,0044
0044,0044
0047,0044
0044,0049
0043,0043
0041,0043
0041,0042
0043,0044
0043,0043
0043,0043
0043,0043
0043,0043
0045,0044
0043,0040
0043,0042
0040,0038
0042,0042
0042,0042
0042,0041
0042,0041
0042,0039
0044,0035
0043,0042
0043,0041
0040,0038
0041,0039
0040,0040
0040,0041
0042,0038
0041,0041
0041,0040
0042,0042
0041,0042
0043,0043
0044,0043
0042,0041
0042,0041
0041,0043
0044,0043
0041,0042
0043,0041
0042,0043
0043,0042
0043,0041
0043,0044
0043,0043
0043,0042
0042,0041
0045,0042
0043,0043
0043,0042
0042,0043
0042,0043
0043,0042
0041,0043
0043,0043
0043,0043
0042,0044
0043,0044
0043,0043
0043,0041
0043,0044
0044,0043
0045,0044
0043,0043
0041,0042
0043,0044
0044,0044
0045,0043
0043,0043
0043,0043
0044,0042
0042,0045
0043,0043
0043,0043
0042,0042
0050,0037
0041,0043
0042,0040
0042,0043
0044,0041
0042,0043
0042,0042
0041,0043
0042,0041
0041,0043
0043,0042
0042,0043
0042,0042
0042,0042
0041,0042
0042,0042
0043,0039
0041,0040
0042,0042
0040,0043
0040,0041
0043,0040
0041,0040
0042,0041
0040,0040
0041,0041
0041,0042
0042,0042
0042,0041
0042,0042
0042,0042
0042,0044
0043,0043
0042,0043
0042,0041
0042,0043
0043,0043
0041,0041
0045,0042
0043,0043
0043,0044
0043,0043
0043,0043
0043,0042
0043,0043
0043,0042
0043,0042
0042,0043
0044,0042
0042,0043
0045,0042
0044,0042
0041,0042
0042,0044
0042,0043
0043,0043
0045,0045
0038,0043
0041,0039
0042,0042
0043,0043
0044,0043
0043,0042
0043,0043
0042,0042
0042,0042
0042,0042
0042,0041
0042,0040
0040,0043
0037,0041
0041,0041
0041,0040
0041,0040
0040,0040
0041,0041
0040,0041
0041,0041
0041,0040
0041,0041
0041,0041
0040,0043
0041,0040
0040,0042
0039,0040
0041,0040
0041,0041
0041,0040
0041,0041
0040,0041
0037,0041
0041,0039
0042,0040
0040,0040
0039,0041
0037,0039
0040,0041
0040,0040
0040,0040
0040,0040
0039,0040
0039,0039
0040,0040
0040,0040
0039,0040
0038,0037
0039,0039
0039,0039
0040,0039
0039,0036
0039,0039
0039,0038
0036,0036
0040,0039
0039,0038
0039,0037
0039,0040
0038,0037
0038,0038
0039,0040
0037,0038
0038,0037
0038,0038
0038,0038
0038,0038
0038,0039
0038,0038
0039,0040
0038,0037
0039,0039
0035,0036
0039,0039
0039,0036
0038,0037
0038,0037
0040,0037
0037,0036
0037,0037
0031,0038
0037,0038
0035,0038
0037,0038
0035,0037
0037,0036
0036,0035
0036,0037
0031,0037
0036,0037
0037,0037
0034,0038
0036,0036
0036,0036
0044,0036
0036,0037
0029,0036
0039,0038
0036,0037
0038,0036
0037,0037
0037,0036
0037,0036
0045,0034
0037,0047
0038,0037
0038,0036
0037,0036
0038,0038
0037,0039
0036,0035
0037,0037
0035,0038
0037,0037
0047,0037
0036,0037
0037,0036
0037,0036
0037,0035
0032,0040
0036,0036
0038,0037
0035,0037
0037,0037
0037,0037
0037,0037
0037,0037
0037,0035
0030,0038
0038,0037
0038,0037
0037,0037
0037,0037
0036,0037
0036,0036
0030,0037
0038,0037
0037,0038
0037,0040
0037,0036
0038,0036
0037,0037
0036,0036
0036,0036
0037,0043
0036,0037
0037,0035
0037,0036
0037,0037
0037,0037
0037,0037
0037,0030
0037,0037
0035,0036
0032,0037
0036,0038
0031,0035
0036,0036
0037,0035
0035,0036
0038,0037
0033,0036
0033,0035
0036,0037
0037,0034
0037,0036
0039,0039
0038,0035
0038,0037
0037,0038
0030,0035
0035,0037
0038,0036
0038,0037
0038,0037
0038,0038
0038,0036
0037,0037
0038,0035
0037,0037
0037,0037
0036,0036
0036,0037
0035,0036
0031,0036
0035,0037
0036,0036
0036,0035
0028,0037
0036,0036
0036,0034
0035,0035
0035,0036
0034,0034
0043,0036
0036,0035
0032,0036
0036,0034
0035,0036
0035,0025
0037,0035
0035,0034
0035,0037
0035,0034
0037,0034
0034,0034
0037,0027
0033,0034
0022,0034
0034,0033
0034,0037
0034,0033
0043,0032
0035,0036
0034,0034
0033,0035
0034,0034
0034,0036
0036,0035
0035,0034
0036,0035
0038,0034
0034,0041
0037,0037
0034,0036
0037,0036
0035,0036
0037,0036
0038,0029
0038,0037
0038,0038
0038,0037
0038,0038
0037,0035
0044,0038
0036,0037
0037,0037
0039,0040
0036,0039
0038,0036
0036,0038
0040,0037
0034,0038
0035,0037
0037,0038
0036,0036
0037,0035
0038,0039
0037,0035
0038,0037
0025,0036
0038,0037
0037,0037
0037,0037
0037,0037
0038,0037
0038,0040
0038,0038
0037,0038
0040,0039
0038,0039
0039,0038
0039,0038
0041,0035
0040,0035
0039,0041
0037,0040
0040,0039
0044,0038
0038,0038
0039,0038
0039,0039
0037,0044
0039,0038
0039,0036
0040,0038
0046,0039
0038,0037
0037,0036
0037,0038
0038,0037
0034,0037
0038,0038
0037,0038
0036,0036
0036,0037
0038,0037
0036,0037
0038,0037
0037,0037
0036,0034
0037,0034
0038,0037
0035,0037
0037,0036
0038,0035
0038,0036
0037,0037
0034,0034
0037,0038
0046,0037
0038,0038
0034,0038
0036,0036
0039,0041
0037,0037
0037,0036
0039,0038
0037,0044
0033,0037
0037,0037
0039,0038
0039,0038
0041,0040
0033,0036
0037,0036
0036,0027
0038,0037
0037,0043
0037,0036
0035,0041
0036,0035
0036,0035
0038,0035
0036,0039
0036,0035
0035,0035
0033,0035
0036,0025
0033,0036
0036,0036
0036,0036
0036,0036
0028,0035
0037,0038
0033,0036
0035,0035
0043,0035
0036,0035
0036,0036
0037,0035
0037,0035
0037,0035
0037,0036
0037,0034
0031,0034
0036,0036
0039,0035
0037,0034
0036,0033
0034,0036
0034,0033
0036,0034
0034,0033
0032,0035
0035,0035
0035,0036
0035,0035
0035,0035
0034,0034
0036,0035
0033,0034
0036,0035
0035,0034
0034,0034
0045,0034
0035,0034
0036,0033
0034,0035
0033,0033
0033,0035
0034,0043
0034,0034
0034,0035
0035,0034
0034,0040
0034,0035
0027,0036
0033,0035
0042,0032
0034,0035
0034,0032
0033,0035
0037,0034
0034,0033
0033,0034
0034,0032
0034,0032
0032,0033
0036,0034
0034,0034
0033,0035
0034,0034
0033,0034
0031,0034
0035,0030
0034,0034
0039,0034
0033,0034
0035,0034
0031,0033
0033,0035
0034,0034
0031,0034
0034,0034
0041,0034
0031,0033
0032,0033
0033,0031
0038,0032
0034,0033
0028,0032
0030,0031
0035,0033
0031,0033
0033,0034
0033,0031
0033,0023
0035,0034
0034,0033
0033,0034
0041,0030
0033,0035
0033,0034
0033,0033
0036,0034
0032,0034
0032,0042
0035,0033
0033,0035
0035,0033
0034,0036
0037,0036
0038,0035
0037,0035
0034,0034
0036,0036
0038,0036
0037,0035
0037,0036
0035,0035
0035,0035
0037,0036
0037,0035
0036,0036
0034,0036
0035,0034
0035,0036
0035,0035
0033,0035
0036,0035
0037,0034
0036,0034
0035,0034
0033,0036
0037,0035
0035,0035
0040,0035
0034,0036
0033,0036
0034,0036
0034,0037
0034,0034
0033,0034
0033,0035
0043,0035
0035,0034
0034,0034
0036,0033
0033,0034
0034,0034
0035,0036
0036,0034
0041,0030
0036,0034
0034,0034
0032,0035
0034,0034
0036,0034
0038,0031
0035,0034
0036,0028
0036,0035
0036,0029
0036,0036
0026,0037
0035,0034
0036,0036
0036,0035
0034,0036
0036,0035
0036,0033
0037,0037
0036,0027
0035,0036
0036,0031
0035,0036
0035,0032
0037,0037
0036,0036
0033,0034
0032,0043
0035,0036
0037,0036
0036,0036
0036,0041
0036,0035
0035,0036
0038,0036
0038,0038
0038,0037
0035,0037
0036,0036
0039,0036
0033,0035
0038,0036
0036,0034
0034,0036
0034,0036
0035,0035
0035,0034
0033,0034
0033,0036
0035,0036
0034,0035
0035,0033
0029,0035
0034,0034
0035,0033
0037,0035
0033,0035
0037,0033
0035,0033
0035,0026
0034,0033
0036,0034
0035,0034
0034,0034
0035,0035
0034,0036
0034,0035
0032,0032
0032,0032
0036,0033
0034,0034
0032,0035
0038,0036
0034,0034
0033,0035
0035,0034
0035,0034
0035,0035
0036,0036
0036,0035
0035,0034
0036,0036
0034,0036
0034,0036
0035,0036
0036,0036
0035,0036
0036,0035
0035,0035
0038,0040
0036,0038
0035,0035
0044,0035
0036,0035
0035,0034
0036,0036
0036,0037
0036,0044
0034,0037
0037,0035
0037,0036
0037,0036
0036,0036
0038,0034
0037,0039
0037,0043
0038,0037
0038,0038
0035,0038
0038,0037
0036,0038
0038,0038
0038,0036
0036,0037
0037,0037
0037,0037
0037,0038
0038,0033
0036,0037
0036,0037
0036,0035
0037,0037
0037,0037
0038,0038
0039,0037
0038,0037
0039,0038
0039,0038
0038,0038
0039,0038
0037,0039
0038,0033
0038,0039
0036,0037
0038,0038
0040,0039
0038,0038
0038,0037
0038,0038
0037,0038
0037,0038
0038,0038
0038,0038
0038,0038
0036,0039
0039,0039
0037,0039
0038,0038
0039,0038
0037,0037
0036,0037
0037,0037
0039,0037
0038,0037
0038,0038
0037,0037
0037,0037
0036,0038
0038,0039
0039,0038
0038,0037
0038,0038
0039,0039
0036,0038
0037,0036
0037,0037
0037,0038
0036,0037
0036,0037
0037,0037
0039,0038
0038,0040
0040,0039
0038,0037
0038,0039
0035,0037
0037,0037
0037,0037
0036,0036
0037,0038
0037,0037
0038,0037
0036,0037
0038,0036
0037,0036
0034,0036
0036,0036
0033,0034
0033,0035
0036,0036
0035,0036
0034,0036
0036,0038
0036,0038
0037,0037
0037,0037
0036,0036
0036,0037
0038,0037
0037,0036
0037,0037
0037,0032
0037,0037
0038,0036
0045,0035
0037,0037
0035,0031
0037,0038
0037,0038
0039,0038
0038,0036
0038,0036
0038,0039
0036,0037
0037,0037
0038,0036
0037,0036
0036,0038
0037,0035
0037,0034
0039,0031
0038,0039
0036,0037
0036,0036
0038,0037
0038,0038
0037,0038
0035,0036
0037,0037
0034,0037
0037,0036
0036,0036
0037,0036
0037,0035
0037,0036
0036,0035
0039,0035
0036,0036
0034,0034
0036,0036
0035,0036
0036,0037
0036,0036
0037,0036
0038,0037
0038,0037
0037,0037
0037,0036
0036,0036
0037,0035
0036,0036
0034,0034
0036,0034
0037,0036
0036,0035
0037,0034
0036,0037
0039,0036
0035,0024
0036,0036
0036,0035
0036,0036
0035,0036
0036,0038
0038,0036
0038,0035
0036,0036
0037,0037
0037,0036
0037,0036
0038,0037
0036,0038
0036,0035
0033,0037
0037,0036
0037,0037
0037,0037
0039,0037
0037,0035
0036,0036
0037,0037
0037,0036
0038,0037
0037,0035
0038,0036
0032,0037
0035,0038
0038,0039
0038,0038
0038,0039
0038,0038
0039,0039
0038,0038
0038,0038
0037,0037
0038,0037
0038,0038
0039,0037
0034,0037
0038,0037
0040,0030
0036,0038
0038,0038
0038,0037
0038,0036
0037,0038
0038,0039
0037,0035
0037,0037
0038,0037
0038,0039
0037,0038
0038,0038
0038,0037
0036,0036
0037,0036
0037,0040
0037,0038
0037,0037
0035,0037
0038,0037
0037,0037
0037,0037
0037,0037
0036,0036
0037,0035
0036,0036
0037,0036
0037,0036
0036,0034
0035,0035
0036,0036
0036,0037
0036,0036
0036,0035
0035,0035
0034,0034
0035,0035
0034,0033
0036,0035
0038,0037
0036,0035
0035,0035
0034,0037
0034,0033
0033,0035
0035,0035
0035,0035
0033,0034
0035,0035
0035,0035
0035,0032
0035,0033
0033,0033
0034,0034
0035,0034
0034,0035
0034,0034
0034,0034
0032,0035
0035,0034
0034,0033
0033,0035
0034,0034
0035,0034
0033,0034
0034,0035
0035,0034
0034,0036
0035,0033
0034,0036
0036,0034
0034,0034
0034,0033
0036,0033
0036,0035
0035,0035
0036,0035
0035,0035
0036,0036
0037,0037
0037,0036
0037,0038
0037,0036
0037,0037
0038,0038
0038,0039
0039,0038
0038,0038
0038,0037
0037,0037
0037,0037
0037,0038
0038,0038
0039,0036
0038,0040
0036,0037
0040,0036
0038,0039
0038,0039
0038,0038
0038,0037
0038,0039
0036,0039
0037,0037
0038,0039
0037,0037
0036,0037
0037,0038
0038,0038
0037,0037
0038,0036
0036,0038
0039,0037
0041,0038
0038,0037
0037,0036
0035,0038
0036,0036
0037,0035
0037,0035
0036,0037
0036,0036
0036,0036
0037,0036
0038,0039
0038,0037
0038,0037
0038,0039
0039,0038
0036,0038
0038,0038
0038,0039
0037,0039
0037,0038
0037,0038
0037,0038
0038,0038
0038,0039
0039,0039
0039,0037
0032,0037
0038,0036
0037,0039
0036,0037
0037,0037
0038,0037
0037,0038
0038,0037
0037,0037
0037,0037
0037,0035
0038,0037
0038,0038
0037,0038
0037,0036
0038,0038
0036,0038
0036,0036
0038,0037
0037,0036
0035,0037
0037,0037
0037,0037
0039,0037
0038,0037
0037,0037
0037,0037
0037,0036
0038,0037
0036,0035
0036,0036
0038,0034
0036,0035
0034,0036
0038,0037
0036,0035
0035,0036
0035,0035
0036,0035
0035,0036
0036,0034
0038,0035
0034,0037
0035,0032
0035,0035
0036,0035
0035,0035
0035,0036
0035,0034
0033,0034
0036,0034
0036,0036
0035,0034
0030,0034
0035,0034
0036,0034
0035,0034
0033,0034
0034,0034
0035,0034
0034,0033
0035,0034
0032,0033
0033,0032
0033,0032
0036,0034
0034,0035
0033,0034
0033,0034
0035,0033
0033,0033
0032,0033
0034,0033
0033,0034
0032,0032
0033,0031
0032,0034
0033,0033
0033,0031
0032,0030
0032,0032
0031,0034
0032,0032
0033,0032
0033,0030
0032,0032
0031,0033
0032,0032
0032,0033
0027,0034
0033,0033
0041,0032
0032,0033
0043,0034
0033,0032
0027,0035
0033,0033
0034,0033
0034,0032
0028,0032
0031,0032
0031,0032
0032,0032
0033,0032
0034,0034
0026,0033
0033,0033
0026,0033
0033,0033
0032,0032
0033,0035
0032,0032
0034,0034
0033,0035
0033,0033
0031,0032
0033,0034
0026,0034
0034,0032
0034,0034
0033,0034
0033,0033
0035,0033
0033,0033
0034,0033
0033,0031
0035,0033
0036,0032
0032,0033
0033,0032
0033,0033
0032,0033
0031,0033
0031,0032
0032,0032
0033,0027
0032,0033
0033,0033
0034,0034
0041,0032
0032,0032
0033,0032
0032,0031
0037,0031
0032,0032
0033,0033
0032,0033
0034,0032
0032,0031
0031,0032
0032,0031
0036,0031
0030,0031
0032,0032
0032,0033
0033,0030
0032,0032
0034,0034
0033,0032
0032,0033
0034,0033
0033,0033
0037,0034
0033,0033
0034,0027
0034,0033
0034,0034
0034,0043
0038,0034
0033,0035
0034,0034
0040,0029
0036,0033
0033,0033
0034,0033
0034,0036
0036,0033
0038,0033
0033,0033
0032,0032
0034,0034
0032,0032
0033,0033
0032,0030
0034,0034
0030,0034
0035,0034
0041,0032
0034,0034
0033,0034
0034,0032
0035,0032
0033,0033
0035,0034
0034,0033
0033,0033
0032,0033
0033,0034
0031,0034
0033,0032
0033,0032
0033,0039
0032,0032
0032,0030
0032,0033
0039,0029
0033,0033
0033,0032
0031,0033
0036,0030
0032,0032
0033,0032
0032,0033
0032,0036
0032,0033
0034,0030
0033,0034
0033,0033
0031,0032
0031,0032
0033,0034
0034,0026
0036,0032
0032,0023
0032,0033
0032,0031
0032,0032
0032,0032
0027,0032
0034,0029
0031,0033
0028,0032
0029,0032
0033,0034
0032,0032
0032,0031
0030,0032
0032,0033
0032,0032
0030,0032
0033,0031
0032,0030
0033,0032
0031,0033
0033,0032
0029,0029
0031,0032
0034,0031
0031,0029
0030,0030
0030,0030
0030,0030
0032,0031
0030,0029
0030,0032
0030,0032
0030,0032
0032,0030
0031,0031
0030,0030
0031,0032
0029,0029
0032,0031
0031,0030
0031,0031
0031,0032
0031,0031
0031,0029
0030,0031
0032,0029
0032,0030
0034,0036
0031,0030
0026,0030
0030,0030
0031,0030
0030,0028
0029,0033
0030,0030
0028,0032
0031,0030
0033,0035
0026,0031
0031,0021
0031,0030
0032,0023
0031,0030
0031,0031
0029,0031
0032,0030
0029,0031
0031,0030
0033,0031
0028,0031
0030,0030
0029,0030
0031,0033
0031,0034
0023,0030
0030,0027
0027,0028
0030,0030
0032,0030
0030,0032
0032,0031
0030,0030
0029,0032
0031,0031
0031,0032
0030,0031
0029,0030
0032,0031
0033,0033
0030,0034
0036,0031
0032,0031
0031,0030
0030,0031
0031,0033
0033,0031
0030,0031
0031,0032
0030,0031
0031,0030
0032,0030
0030,0031
0033,0031
0032,0032
0030,0031
0032,0031
0033,0033
0032,0034
0032,0034
0032,0033
0031,0033
0033,0032
0032,0033
0035,0033
0032,0034
0032,0032
0031,0033
0031,0034
0032,0034
0033,0031
0028,0032
0033,0033
0033,0031
0033,0032
0033,0032
0035,0032
0033,0033
0033,0031
0030,0032
0030,0032
0033,0033
0032,0032
0032,0032
0032,0032
0034,0033
0033,0033
0033,0035
0032,0032
0033,0033
0032,0033
0035,0032
0031,0030
0032,0031
0032,0027
0026,0030
0030,0031
0044,0031
0032,0031
0032,0032
0032,0031
0033,0032
0031,0032
0033,0032
0031,0032
0038,0034
0034,0032
0033,0030
0032,0031
0031,0036
0033,0032
0032,0032
0033,0030
0026,0032
0033,0033
0033,0034
0032,0033
0044,0032
0033,0033
0034,0031
0032,0034
0032,0034
0032,0034
0030,0031
0030,0031
0033,0035
0031,0034
0041,0034
0035,0034
0035,0036
0034,0032
0035,0036
0033,0035
0034,0034
0036,0033
0034,0035
0035,0033
0034,0035
0036,0034
0034,0037
0034,0035
0031,0035
0034,0033
0035,0034
0034,0035
0032,0033
0030,0033
0034,0035
0034,0032
0033,0033
0033,0034
0031,0035
0032,0032
0039,0034
0033,0033
0038,0033
0034,0033
0033,0027
0036,0033
0035,0036
0034,0033
0035,0035
0034,0035
0035,0034
0035,0036
0034,0033
0033,0034
0045,0033
0035,0033
0033,0034
0034,0033
0036,0033
0035,0033
0035,0032
0034,0034
0034,0032
0034,0032
0025,0034
0031,0034
0034,0034
0035,0033
0029,0033
0034,0033
0033,0032
0034,0033
0030,0042
0034,0033
0036,0034
0032,0033
0034,0032
0035,0034
0033,0032
0035,0033
0032,0033
0034,0033
0034,0033
0034,0031
0033,0035
0034,0034
0031,0033
0033,0033
0032,0038
0033,0034
0032,0034
0034,0035
0034,0034
0034,0033
0033,0034
0035,0033
0035,0032
0034,0033
0034,0034
0033,0033
0032,0032
0033,0032
0033,0033
0032,0032
0033,0025
0032,0033
0032,0033
0033,0031
0034,0033
0032,0033
0035,0036
0034,0033
0032,0033
0034,0033
0034,0034
0035,0034
0035,0034
0034,0033
0033,0034
0035,0036
0022,0035
0035,0033
0034,0035
0035,0034
0036,0035
0035,0035
0037,0036
0036,0037
0036,0039
0036,0037
0039,0038
0037,0037
0037,0041
0037,0036
0037,0037
0037,0037
0036,0036
0037,0038
0037,0037
0036,0038
0037,0037
0037,0037
0035,0038
0038,0040
0036,0036
0034,0037
0038,0037
0037,0038
0037,0036
0037,0037
0035,0035
0036,0035
0036,0036
0038,0037
0037,0037
0035,0036
0036,0038
0036,0044
0036,0036
0035,0037
0037,0037
0036,0034
0036,0036
0036,0036
0035,0035
0035,0034
0035,0035
0036,0035
0035,0036
0035,0036
0034,0036
0036,0035
0035,0035
0035,0034
0036,0032
0035,0034
0035,0035
0034,0032
0034,0033
0033,0035
0034,0035
0035,0036
0034,0033
0035,0036
0035,0036
0034,0033
0034,0036
0033,0031
0035,0033
0035,0035
0035,0035
0034,0035
0036,0034
0034,0035
0035,0035
0034,0034
0035,0034
0032,0033
0045,0033
0034,0035
0034,0027
0033,0035
0033,0033
0033,0035
0032,0034
0033,0035
0032,0036
0034,0034
0033,0034
0035,0034
0034,0035
0032,0034
0033,0032
0033,0034
0033,0031
0034,0033
0033,0034
0034,0034
0033,0032
0033,0032
0033,0033
0032,0031
0034,0032
0032,0032
0033,0033
0033,0035
0032,0034
0035,0032
0033,0034
0032,0034
0034,0034
0034,0035
0036,0034
0034,0035
0034,0033
0034,0034
0034,0032
0033,0034
0032,0033
0033,0034
0033,0034
0033,0033
0032,0033
0034,0032
0034,0033
0034,0032
0032,0032
0032,0031
0035,0032
0033,0033
0033,0034
0033,0033
0034,0033
0032,0031
0031,0035
0033,0032
0033,0033
0034,0033
0033,0035
0034,0033
0033,0033
0033,0032
0032,0035
0031,0031
0035,0034
0034,0033
0032,0033
0033,0035
0034,0034
0033,0033
0033,0033
0033,0033
0033,0034
0036,0033
0033,0033
0033,0033
0032,0035
0032,0033
0034,0033
0033,0033
0034,0034
0035,0034
0034,0034
0034,0033
0031,0033
0034,0032
0034,0033
0033,0033
0033,0033
0031,0030
0033,0033
0033,0033
0034,0034
0034,0034
0034,0036
0033,0032
0032,0033
0033,0032
0033,0033
0031,0033
0032,0034
0033,0034
0033,0032
0034,0034
0035,0033
0035,0033
0035,0032
0034,0034
0034,0035
0034,0033
0033,0034
0034,0034
0036,0036
0035,0034
0035,0037
0032,0034
0035,0035
0034,0032
0033,0035
0035,0038
0033,0033
0034,0036
0035,0034
0035,0034
0034,0035
0035,0035
0033,0033
0035,0035
0035,0035
0035,0035
0036,0035
0035,0034
0033,0033
0034,0034
0033,0032
0033,0034
0033,0033
0035,0034
0034,0032
0032,0034
0034,0034
0034,0034
0033,0033
0029,0029
0033,0033
0035,0034
0034,0033
0031,0033
0031,0032
0033,0033
0034,0033
0034,0034
0035,0034
0034,0035
0034,0034
0034,0034
0032,0034
0034,0034
0033,0033
0033,0033
0033,0033
0035,0033
0031,0033
0034,0033
0033,0035
0032,0033
0034,0033
0034,0032
0032,0031
0031,0038
0027,0032
0032,0031
0034,0032
0032,0033
0033,0033
0032,0033
0033,0032
0033,0033
0032,0031
0032,0032
0032,0032
0033,0031
0031,0033
0032,0032
0032,0031
0032,0031
0043,0032
0032,0033
0033,0032
0032,0032
0032,0031
0030,0031
0031,0030
0032,0032
0033,0031
0031,0031
0030,0032
0032,0032
0030,0032
0031,0027
0032,0031
0031,0032
0032,0029
0031,0031
0029,0031
0032,0031
0031,0031
0033,0031
0031,0031
0032,0032
0030,0029
0031,0031
0031,0031
0031,0030
0031,0030
0032,0030
0031,0031
0031,0031
0030,0029
0030,0029
0030,0030
0030,0031
0030,0030
0031,0031
0030,0029
0031,0031
0031,0031
0030,0031
0030,0031
0031,0030
0030,0030
0031,0029
0031,0031
0031,0029
0038,0032
0030,0030
0031,0029
0031,0030
0030,0030
0030,0030
0031,0031
0031,0030
0032,0030
0031,0032
0032,0030
0030,0031
0030,0032
0032,0033
0032,0033
0031,0032
0033,0031
0033,0033
0031,0032
0032,0032
0032,0034
0033,0032
0034,0033
0033,0033
0034,0034
0034,0034
0034,0034
0035,0034
0035,0035
0034,0035
0033,0033
0034,0035
0034,0034
0034,0034
0034,0037
0035,0035
0034,0033
0034,0034
0034,0034
0034,0035
0034,0034
0035,0035
0034,0035
0035,0034
0033,0033
0033,0033
0034,0034
0035,0034
0034,0031
0035,0034
0034,0035
0034,0034
0035,0033
0034,0034
0033,0033
0032,0034
0034,0034
0032,0033
0032,0033
0034,0033
0033,0033
0033,0033
0034,0034
0034,0034
0035,0034
0033,0033
0034,0034
0031,0036
0033,0043
0033,0032
0033,0033
0032,0033
0033,0033
0032,0033
0033,0033
0034,0032
0034,0033
0032,0033
0033,0033
0033,0033
0032,0034
0033,0033
0033,0032
0032,0036
0034,0034
0033,0033
0033,0033
0033,0033
0036,0032
0033,0033
0034,0034
0031,0033
0033,0032
0032,0032
0033,0031
0033,0033
0035,0031
0033,0033
0033,0033
0032,0033
0033,0032
0033,0033
0033,0034
0032,0032
0033,0034
0032,0033
0032,0032
0032,0032
0034,0032
0033,0032
0032,0032
0033,0033
0030,0032
0035,0033
0032,0032
0031,0033
0033,0032
0032,0031
0033,0034
0033,0033
0033,0032
0032,0032
0034,0032
0034,0032
0030,0031
0034,0032
0033,0030
0033,0033
0031,0033
0033,0033
0033,0033
0033,0033
0032,0033
0033,0033
0033,0032
0033,0033
0032,0031
0034,0033
0032,0032
0036,0033
0033,0033
0034,0033
0033,0033
0035,0033
0034,0035
0034,0033
0035,0034
0036,0033
0033,0032
0033,0033
0033,0034
0027,0034
0033,0033
0041,0034
0035,0034
0032,0034
0033,0035
0035,0034
0035,0033
0034,0035
0033,0029
0029,0032
0034,0034
0036,0034
0033,0034
0033,0034
0034,0034
0033,0030
0034,0033
0033,0037
0035,0033
0033,0034
0035,0033
0035,0034
0034,0035
0035,0034
0035,0034
0035,0035
0035,0036
0036,0036
0032,0035
0031,0034
0035,0035
0034,0034
0035,0034
0035,0035
0034,0034
0035,0034
0035,0035
0035,0035
0036,0034
0035,0034
0034,0035
0035,0034
0035,0033
0046,0034
0035,0035
0035,0036
0034,0034
0035,0034
0034,0034
0036,0034
0034,0034
0034,0033
0035,0035
0034,0034
0035,0033
0031,0035
0036,0036
0035,0027
0034,0034
0036,0035
0033,0033
0034,0034
0034,0033
0033,0032
0034,0034
0032,0037
0034,0034
0046,0035
0036,0033
0034,0033
0033,0034
0034,0034
0030,0039
0033,0033
0035,0035
0034,0034
0040,0034
0029,0040
0033,0033
0034,0035
0033,0033
0032,0037
0033,0034
0033,0033
0034,0033
0033,0034
0034,0033
0034,0032
0033,0033
0034,0034
0034,0032
0033,0037
0031,0031
0026,0032
0033,0034
0032,0033
0033,0032
0036,0033
0034,0032
0031,0038
0032,0032
0033,0033
0032,0032
0032,0031
0031,0032
0038,0032
0032,0032
0033,0031
0032,0032
0031,0034
0033,0032
0033,0034
0031,0032
0033,0031
0032,0032
0031,0031
0032,0030
0026,0040
0030,0030
0029,0031
0030,0030
0030,0030
0030,0032
0033,0031
0031,0030
0030,0031
0032,0031
0032,0029
0030,0031
0030,0030
0031,0031
0032,0030
0029,0030
0032,0034
0031,0030
0038,0029
0030,0031
0031,0025
0031,0030
0033,0031
0030,0030
0038,0030
0027,0030
0029,0036
0030,0030
0029,0030
0031,0030
0035,0031
0030,0030
0030,0030
0031,0030
0030,0031
0030,0029
0029,0028
0030,0030
0033,0034
0028,0030
0030,0029
0027,0030
0031,0029
0031,0030
0028,0027
0033,0028
0029,0033
0030,0029
0028,0030
0028,0029
0029,0029
0030,0030
0029,0029
0031,0031
0030,0030
0031,0031
0030,0029
0033,0031
0042,0030
0030,0031
0030,0031
0030,0030
0031,0032
0031,0031
0035,0031
0031,0030
0030,0030
0033,0030
0031,0030
0030,0030
0032,0030
0029,0030
0031,0030
0030,0029
0028,0029
0030,0030
0030,0029
0026,0029
0034,0031
0029,0039
0032,0031
0030,0031
0030,0031
0031,0032
0030,0028
0027,0030
0030,0032
0031,0030
0029,0030
0026,0032
0031,0028
0030,0028
0031,0036
0030,0030
0032,0032
0029,0030
0028,0035
0030,0031
0031,0030
0029,0030
0028,0031
0018,0030
0030,0032
0028,0030
0028,0031
0022,0032
0031,0029
0036,0031
0030,0030
0029,0030
0032,0030
0031,0030
0030,0029
0030,0028
0030,0031
0030,0030
0031,0028
0030,0028
0029,0028
0030,0030
0031,0030
0029,0030
0030,0031
0028,0031
0028,0029
0028,0032
0030,0030
0030,0027
0030,0029
0030,0030
0030,0030
0028,0030
0030,0030
0030,0031
0029,0029
0030,0030
0028,0031
0032,0030
0031,0029
0030,0029
0026,0030
0029,0030
0030,0031
0030,0029
0029,0029
0030,0030
0030,0030
0031,0031
0029,0028
0030,0030
0028,0031
0027,0026
0031,0030
0030,0032
0028,0029
0030,0029
0029,0029
0031,0030
0030,0029
0029,0030
0030,0031
0031,0032
0029,0030
0030,0030
0028,0029
0029,0030
0030,0030
0027,0029
0029,0029
0029,0029
0030,0031
0032,0030
0027,0027
0029,0030
0029,0032
0031,0029
0031,0031
0031,0030
0030,0030
0029,0030
0029,0030
0031,0031
0031,0029
0026,0030
0030,0030
0035,0030
0030,0031
0031,0030
0029,0029
0030,0030
0032,0031
0030,0025
0027,0026
0039,0027
0030,0029
0030,0030
0030,0028
0031,0033
0029,0029
0042,0031
0030,0029
0030,0029
0031,0029
0029,0033
0030,0032
0032,0030
0029,0030
0031,0038
0030,0030
0032,0023
0030,0028
0030,0030
0030,0031
0033,0033
0031,0029
0028,0028
0030,0030
0030,0030
0028,0030
0030,0022
0030,0029
0028,0029
0027,0031
0030,0025
0028,0028
0031,0030
0034,0032
0032,0030
0033,0033
0030,0031
0031,0030
0026,0031
0032,0031
0031,0029
0032,0029
0021,0031
0033,0031
0030,0032
0033,0030
0030,0032
0032,0031
0032,0031
0032,0031
0032,0031
0031,0032
0031,0034
0032,0032
0035,0036
0033,0032
0031,0031
0031,0031
0035,0032
0030,0031
0033,0030
0032,0031
0033,0031
0031,0032
0029,0026
0033,0031
0032,0031
0031,0032
0030,0031
0030,0028
0030,0033
0031,0032
0032,0027
0031,0030
0031,0034
0031,0033
0028,0030
0031,0031
0026,0032
0031,0030
0031,0032
0032,0033
0031,0032
0032,0031
0034,0031
0033,0031
0034,0036
0033,0033
0032,0033
0034,0033
0034,0033
0033,0033
0033,0031
0033,0033
0033,0032
0032,0031
0031,0033
0032,0032
0031,0031
0030,0031
0029,0032
0032,0033
0031,0032
0032,0031
0031,0030
0033,0033
0033,0032
0032,0031
0031,0031
0029,0033
0032,0032
0032,0031
0032,0034
0032,0031
0030,0030
0032,0031
0028,0034
0032,0033
0040,0031
0032,0031
0029,0029
0029,0030
0027,0039
0030,0031
0030,0031
0030,0031
0036,0032
0031,0031
0031,0034
0031,0031
0031,0031
0031,0031
0030,0026
0031,0030
0027,0031
0030,0030
0030,0032
0030,0029
0030,0038
0031,0032
0031,0030
0031,0032
0030,0031
0031,0030
0031,0030
0031,0030
0031,0030
0031,0033
0032,0031
0033,0032
0032,0032
0029,0032
0032,0032
0032,0029
0031,0031
0033,0032
0032,0031
0033,0033
0034,0033
0032,0033
0033,0031
0033,0034
0032,0032
0032,0032
0033,0032
0030,0033
0032,0033
0032,0032
0033,0032
0032,0031
0031,0029
0032,0033
0030,0032
0032,0031
0032,0031
0031,0032
0032,0034
0037,0031
0032,0032
0031,0032
0032,0033
0031,0031
0032,0032
0032,0030
0032,0029
0031,0029
0033,0031
0032,0031
0029,0033
0032,0030
0032,0031
0031,0031
0033,0031
0029,0031
0032,0031
0031,0030
0029,0036
0030,0031
0029,0032
0031,0031
0032,0031
0031,0031
0032,0031
0030,0031
0030,0029
0029,0030
0032,0029
0030,0030
0030,0031
0030,0030
0032,0031
0030,0032
0032,0032
0032,0031
0032,0031
0032,0031
0032,0032
0032,0032
0033,0031
0031,0030
0032,0033
0033,0032
0031,0031
0033,0033
0033,0033
0035,0029
0034,0035
0034,0033
0035,0035
0034,0034
0033,0035
0036,0035
0034,0034
0033,0034
0034,0033
0034,0033
0036,0036
0034,0035
0035,0035
0035,0034
0035,0034
0035,0034
0034,0034
0033,0034
0033,0034
0034,0034
0032,0032
0034,0035
0034,0034
0033,0031
0034,0034
0033,0032
0033,0035
0035,0034
0034,0034
0033,0033
0033,0032
0030,0034
0033,0033
0034,0033
0033,0033
0034,0033
0032,0031
0030,0032
0032,0033
0035,0033
0032,0032
0031,0033
0031,0033
0033,0033
0034,0033
0032,0033
0032,0031
0030,0039
0032,0032
0031,0033
0033,0033
0033,0033
0034,0032
0033,0033
0035,0035
0033,0035
0034,0033
0033,0034
0035,0035
0034,0033
0037,0033
0034,0035
0034,0034
0037,0038
0035,0033
0035,0034
0035,0034
0033,0035
0032,0035
0035,0033
0034,0035
0036,0037
0035,0035
0036,0035
0036,0036
0035,0035
0037,0036
0035,0036
0033,0035
0036,0034
0035,0035
0036,0036
0037,0034
0034,0034
0035,0035
0037,0033
0035,0035
0034,0034
0037,0037
0036,0035
0034,0035
0034,0033
0035,0035
0033,0035
0036,0035
0036,0036
0036,0034
0036,0036
0037,0035
0034,0038
0036,0035
0033,0036
0034,0036
0034,0034
0034,0036
0038,0035
0036,0036
0034,0034
0036,0035
0035,0033
0037,0034
0035,0035
0034,0034
0034,0034
0034,0034
0036,0034
0035,0034
0035,0035
0034,0033
0030,0033
0034,0034
0034,0033
0036,0033
0033,0034
0034,0034
0034,0034
0034,0034
0035,0038
0034,0035
0035,0035
0032,0036
0036,0035
0035,0033
0035,0034
0034,0033
0034,0035
0034,0035
0034,0035
0035,0035
0032,0036
0035,0035
0035,0035
0035,0035
0033,0042
0036,0037
0037,0036
0037,0035
0037,0034
0033,0036
0037,0035
0037,0036
0035,0036
0035,0034
0034,0036
0035,0035
0036,0036
0036,0035
0035,0035
0034,0034
0033,0033
0038,0035
0034,0035
0034,0034
0035,0035
0034,0036
0034,0035
0036,0035
0036,0038
0036,0035
0036,0035
0035,0035
0035,0036
0035,0036
0037,0036
0036,0034
0035,0036
0029,0035
0036,0034
0036,0036
0034,0036
0035,0035
0036,0034
0035,0034
0035,0034
0034,0034
0032,0033
0031,0035
0034,0034
0033,0035
0035,0032
0035,0034
0035,0035
0031,0032
0035,0036
0033,0034
0035,0036
0035,0035
0034,0034
0034,0036
0034,0033
0033,0035
0034,0031
0034,0034
0032,0035
0036,0035
0034,0035
0035,0034
0031,0033
0021,0034
0034,0035
0034,0035
0033,0034
0033,0035
0033,0033
0033,0034
0033,0033
0033,0033
0033,0031
0033,0033
0033,0031
0034,0033
0034,0035
0032,0032
0032,0033
0033,0034
0033,0031
0034,0032
0033,0032
0034,0033
0034,0033
0034,0035
0036,0034
0034,0034
0035,0035
0033,0035
0034,0037
0035,0036
0035,0036
0035,0036
0036,0034
0032,0035
0035,0033
0034,0034
0036,0034
0034,0035
0034,0036
0037,0037
0035,0036
0038,0037
0036,0036
0036,0037
0036,0036
0037,0038
0038,0037
0038,0038
0036,0036
0041,0037
0037,0036
0037,0036
0037,0039
0038,0037
0037,0037
0037,0037
0037,0036
0039,0038
0037,0037
0041,0037
0036,0037
0037,0036
0037,0037
0038,0036
0039,0036
0036,0038
0036,0037
0035,0036
0037,0037
0037,0035
0035,0035
0035,0035
0035,0034
0035,0033
0035,0035
0034,0035
0035,0035
0035,0034
0036,0036
0036,0036
0036,0035
0034,0037
0035,0035
0035,0034
0034,0034
0035,0035
0036,0035
0035,0035
0033,0035
0034,0035
0035,0034
0033,0033
0034,0033
0031,0033
0033,0032
0033,0033
0035,0032
0032,0034
0031,0031
0033,0033
0033,0033
0031,0031
0033,0033
0031,0033
0033,0033
0035,0033
0033,0033
0032,0033
0034,0031
0033,0033
0033,0032
0030,0030
0032,0031
0039,0027
0031,0033
0032,0031
0032,0031
0033,0031
0033,0032
0033,0031
0032,0030
0030,0032
0033,0033
0031,0033
0034,0034
0032,0033
0033,0032
0033,0034
0033,0032
0040,0033
0034,0034
0032,0033
0032,0033
0034,0033
0029,0033
0034,0034
0035,0032
0032,0032
0031,0032
0034,0033
0033,0031
0034,0033
0034,0033
0031,0032
0033,0032
0033,0034
0033,0033
0032,0034
0033,0030
0033,0034
0033,0033
0032,0033
0032,0030
0033,0034
0039,0034
0034,0034
0034,0033
0034,0033
0032,0032
0033,0033
0034,0033
0033,0035
0027,0033
0033,0032
0033,0031
0034,0036
0032,0031
0033,0034
0030,0033
0033,0032
0026,0033
0034,0033
0036,0033
0033,0033
0036,0035
0034,0032
0035,0033
0033,0033
0034,0033
0033,0040
0032,0033
0034,0033
0034,0033
0033,0035
0033,0033
0033,0032
0032,0033
0032,0031
0032,0029
0032,0032
0032,0031
0031,0032
0033,0031
0032,0031
0039,0032
0031,0032
0031,0032
0029,0032
0032,0032
0032,0031
0030,0032
0033,0029
0032,0033
0032,0033
0033,0032
0034,0032
0031,0033
0032,0032
0033,0033
0034,0032
0032,0032
0034,0033
0023,0031
0033,0034
0036,0033
0032,0032
0034,0033
0031,0032
0033,0029
0028,0035
0032,0032
0033,0031
0033,0029
0033,0033
0032,0032
0033,0032
0034,0034
0034,0031
0036,0037
0033,0032
0031,0032
0033,0032
0032,0032
0034,0034
0041,0035
0034,0033
0033,0036
0035,0032
0032,0033
0034,0033
0035,0034
0035,0035
0037,0036
0034,0035
0032,0040
0034,0034
0036,0034
0035,0036
0035,0035
0035,0035
0035,0032
0035,0035
0036,0035
0035,0034
0030,0035
0039,0035
0035,0036
0036,0034
0043,0034
0034,0043
0031,0035
0034,0035
0031,0044
0034,0033
0035,0035
0035,0033
0032,0033
0036,0037
0033,0037
0035,0034
0033,0041
0035,0036
0033,0035
0036,0034
0036,0033
0035,0035
0035,0034
0035,0035
0035,0038
0035,0035
0035,0036
0033,0036
0032,0035
0032,0032
0035,0024
0034,0034
0034,0035
0035,0034
0033,0034
0034,0035
0034,0034
0035,0034
0034,0034
0034,0035
0035,0036
0048,0037
0034,0034
0037,0038
0036,0037
0035,0035
0042,0037
0037,0036
0037,0036
0036,0036
0036,0036
0035,0034
0037,0039
0036,0037
0025,0036
0035,0038
0036,0037
0035,0036
0038,0035
0040,0036
0035,0039
0035,0035
0032,0035
0036,0036
0035,0037
0033,0036
0036,0034
0035,0036
0034,0036
0036,0035
0033,0035
0036,0036
0038,0035
0035,0038
0036,0031
0037,0035
0036,0034
0033,0035
0035,0036
0036,0036
0034,0033
0033,0035
0037,0035
0036,0035
0034,0033
0035,0036
0036,0027
0035,0036
0035,0035
0034,0035
0035,0041
0036,0035
0035,0037
0036,0036
0037,0034
0034,0035
0030,0033
0044,0035
0033,0034
0033,0032
0035,0034
0035,0034
0035,0034
0035,0034
0035,0026
0034,0033
0033,0032
0031,0042
0034,0037
0036,0037
0032,0037
0033,0035
0035,0032
0037,0035
0035,0034
0034,0035
0032,0031
0034,0035
0035,0034
0034,0034
0033,0032
0034,0033
0034,0031
0028,0034
0033,0024
0033,0034
0033,0033
0033,0033
0032,0031
0029,0033
0032,0032
0032,0031
0034,0034
0033,0032
0031,0034
0033,0033
0033,0031
0032,0033
0034,0033
0034,0032
0032,0031
0036,0032
0033,0031
0029,0030
0033,0032
0031,0039
0033,0031
0030,0031
0030,0032
0028,0032
0031,0032
0032,0032
0032,0031
0031,0031
0032,0031
0032,0031
0031,0032
0032,0031
0030,0032
0030,0031
0032,0031
0033,0032
0032,0032
0032,0032
0031,0031
0034,0033
0033,0032
0032,0029
0034,0033
0032,0031
0032,0031
0032,0032
0031,0032
0034,0032
0031,0032
0032,0032
0032,0033
0038,0032
0029,0031
0031,0031
0029,0030
0029,0030
0032,0030
0032,0033
0031,0033
0030,0041
0034,0034
0035,0032
0034,0033
0033,0035
0034,0032
0035,0032
0032,0034
0042,0033
0034,0031
0033,0032
0033,0033
0032,0032
0033,0031
0032,0032
0032,0032
0033,0034
0032,0034
0030,0033
0033,0033
0033,0035
0035,0035
0036,0035
0033,0034
0036,0035
0035,0034
0034,0036
0032,0032
0037,0037
0036,0032
0034,0039
0034,0036
0030,0044
0035,0035
0036,0034
0035,0034
0035,0036
0036,0035
0035,0037
0035,0036
0036,0036
0035,0035
0036,0044
0035,0035
0034,0032
0036,0035
0028,0035
0036,0037
0034,0033
0036,0035
0038,0036
0036,0035
0037,0035
0036,0036
0034,0033
0037,0037
0036,0037
0036,0036
0037,0037
0040,0036
0036,0037
0038,0035
0037,0035
0036,0035
0040,0036
0036,0035
0035,0036
0038,0036
0034,0038
0035,0036
0043,0032
0036,0036
0035,0037
0036,0037
0035,0036
0036,0035
0035,0034
0036,0035
0038,0033
0034,0034
0034,0038
0035,0035
0036,0035
0036,0036
0036,0036
0037,0035
0024,0035
0037,0034
0035,0034
0036,0036
0035,0035
0035,0035
0037,0034
0035,0036
0034,0037
0036,0036
0035,0035
0036,0035
0037,0037
0036,0036
0027,0036
0035,0035
0037,0035
0036,0038
0038,0034
0033,0035
0037,0035
0036,0035
0037,0035
0035,0034
0035,0039
0036,0035
0033,0036
0036,0035
0036,0034
0038,0036
0034,0036
0034,0035
0034,0036
0034,0035
0035,0036
0035,0035
0036,0035
0035,0034
0035,0033
0035,0034
0032,0037
0034,0036
0035,0041
0035,0033
0037,0034
0036,0035
0035,0034
0034,0034
0035,0035
0034,0035
0034,0033
0030,0034
0034,0035
0034,0033
0035,0036
0035,0034
0036,0035
0036,0035
0037,0034
0035,0035
0036,0036
0036,0036
0036,0027
0035,0036
0036,0035
0034,0035
0035,0036
0035,0035
0035,0035
0035,0036
0037,0034
0036,0035
0035,0035
0036,0035
0036,0034
0035,0035
0035,0034
0035,0035
0035,0034
0036,0036
0038,0040
0035,0036
0036,0037
0047,0035
0036,0037
0036,0037
0033,0033
0036,0035
0035,0034
0035,0035
0036,0036
0035,0036
0036,0032
0037,0035
0036,0035
0036,0034
0037,0036
0035,0036
0036,0035
0035,0036
0035,0036
0033,0035
0036,0036
0034,0037
0035,0036
0034,0036
0034,0037
0034,0036
0036,0036
0036,0036
0035,0036
0035,0035
0035,0034
0036,0035
0034,0035
0037,0036
0036,0035
0035,0036
0036,0036
0036,0036
0037,0034
0035,0035
0035,0035
0035,0036
0035,0036
0035,0034
0035,0037
0037,0036
0036,0036
0036,0036
0033,0033
0035,0034
0035,0037
0035,0035
0036,0036
0036,0036
0037,0035
0036,0036
0036,0038
0036,0036
0036,0036
0036,0035
0039,0035
0037,0035
0036,0035
0036,0034
0035,0035
0035,0035
0036,0035
0036,0037
0036,0036
0035,0036
0035,0035
0036,0036
0037,0040
0035,0037
0035,0036
0037,0036
0036,0035
0036,0036
0037,0037
0036,0035
0035,0034
0036,0037
0036,0036
0036,0036
0035,0034
0036,0036
0036,0035
0034,0036
0036,0036
0035,0036
0037,0035
0035,0036
0036,0035
0036,0036
0035,0035
0037,0038
0036,0035
0039,0034
0035,0037
0035,0034
0035,0036
0036,0035
0034,0034
0035,0036
0035,0035
0035,0033
0034,0033
0035,0034
0036,0035
0034,0033
0036,0034
0034,0035
0033,0031
0035,0031
0034,0034
0034,0034
0035,0033
0036,0040
0033,0035
0034,0034
0034,0035
0034,0034
0034,0033
0033,0035
0034,0034
0035,0035
0036,0034
0032,0035
0035,0035
0033,0032
0034,0033
0036,0034
0035,0036
0034,0034
0034,0034
0035,0035
0034,0034
0034,0034
0033,0034
0035,0033
0034,0033
0034,0034
0034,0033
0034,0034
0037,0037
0032,0033
0035,0034
0034,0035
0033,0031
0034,0034
0035,0034
0033,0034
0034,0033
0035,0033
0033,0032
0032,0033
0033,0034
0033,0033
0033,0031
0032,0032
0032,0031
0033,0031
0033,0033
0033,0032
0032,0033
0032,0032
0033,0030
0033,0032
0033,0034
0033,0034
0033,0034
0033,0033
0034,0034
0034,0032
0034,0035
0032,0033
0035,0033
0034,0035
0032,0032
0032,0034
0033,0032
0035,0033
0033,0033
0033,0033
0033,0033
0034,0034
0035,0035
0034,0035
0033,0034
0033,0033
0032,0034
0034,0036
0034,0034
0033,0033
0031,0034
0034,0034
0030,0040
0036,0033
0034,0033
0034,0034
0034,0033
0034,0034
0033,0035
0033,0033
0035,0032
0033,0032
0033,0033
0033,0033
0032,0031
0033,0039
0032,0033
0033,0033
0033,0033
0034,0034
0032,0033
0032,0034
0032,0034
0033,0033
0034,0035
0034,0036
0033,0032
0033,0032
0033,0033
0034,0034
0035,0035
0035,0040
0035,0032
0033,0033
0034,0033
0033,0032
0033,0032
0033,0032
0033,0033
0028,0032
0033,0032
0035,0033
0034,0032
0031,0034
0033,0034
0034,0034
0033,0033
0034,0033
0032,0033
0032,0033
0033,0033
0034,0034
0033,0033
0028,0033
0032,0034
0032,0032
0033,0033
0033,0035
0033,0032
0033,0033
0034,0034
0031,0033
0032,0033
0034,0031
0032,0031
0030,0033
0032,0033
0031,0032
0033,0031
0033,0032
0034,0035
0034,0033
0034,0033
0032,0034
0031,0034
0033,0034
0033,0035
0034,0037
0035,0033
0033,0034
0035,0034
0034,0035
0033,0034
0039,0033
0033,0036
0033,0034
0033,0033
0034,0035
0034,0034
0042,0034
0034,0035
0036,0034
0034,0035
0033,0034
0035,0035
0034,0035
0035,0035
0043,0034
0034,0034
0034,0034
0034,0034
0045,0034
0032,0032
0027,0034
0034,0037
0037,0034
0035,0032
0035,0032
0033,0033
0034,0033
0033,0032
0032,0032
0040,0033
0034,0036
0031,0034
0033,0033
0032,0034
0031,0031
0032,0032
0033,0032
0032,0032
0032,0032
0033,0033
0032,0032
0034,0032
0035,0033
0033,0032
0034,0032
0034,0032
0036,0032
0032,0032
0043,0033
0034,0031
0033,0033
0032,0032
0034,0032
0034,0034
0031,0032
0033,0034
0030,0034
0033,0034
0034,0033
0034,0034
0035,0035
0034,0034
0034,0035
0033,0034
0036,0032
0033,0033
0033,0033
0035,0037
0040,0035
0034,0035
0034,0035
0034,0034
0035,0035
0036,0034
0034,0037
0035,0034
0035,0033
0034,0034
0034,0035
0034,0034
0034,0039
0034,0035
0037,0031
0034,0035
0042,0032
0035,0034
0033,0033
0037,0035
0034,0043
0035,0034
0041,0034
0034,0033
0033,0034
0035,0024
0034,0033
0034,0033
0026,0033
0034,0032
0033,0033
0032,0031
0036,0033
0035,0034
0036,0034
0035,0035
0034,0037
0036,0035
0024,0036
0036,0036
0035,0036
0034,0030
0031,0035
0035,0035
0035,0035
0036,0038
0036,0036
0036,0036
0036,0035
0036,0036
0044,0035
0035,0035
0036,0036
0037,0045
0038,0045
0035,0036
0035,0036
0033,0036
0035,0032
0036,0035
0037,0035
0036,0036
0034,0037
0037,0036
0035,0037
0036,0035
0035,0037
0034,0036
0035,0034
0035,0036
0035,0037
0037,0035
0036,0036
0035,0034
0038,0033
0035,0035
0036,0035
0035,0034
0036,0034
0032,0033
0035,0033
0035,0034
0033,0038
0033,0035
0031,0034
0036,0034
0033,0036
0036,0034
0036,0035
0036,0035
0036,0035
0035,0035
0036,0034
0036,0042
0035,0036
0033,0035
0034,0035
0034,0035
0034,0033
0033,0033
0034,0025
0035,0033
0034,0033
0034,0034
0034,0033
0033,0034
0033,0033
0034,0035
0034,0031
0033,0033
0033,0038
0033,0033
0035,0033
0033,0034
0033,0031
0034,0032
0033,0033
0033,0031
0030,0034
0030,0032
0032,0033
0032,0031
0034,0032
0032,0032
0033,0033
0032,0032
0028,0031
0032,0030
0029,0037
0030,0031
0033,0025
0035,0033
0032,0033
0032,0031
0027,0030
0032,0032
0032,0032
0032,0031
0032,0031
0032,0034
0034,0031
0031,0032
0033,0026
0032,0033
0031,0032
0025,0032
0030,0038
0031,0032
0033,0032
0032,0033
0033,0036
0032,0032
0033,0033
0034,0034
0034,0032
0045,0034
0033,0034
0035,0036
0034,0031
0034,0031
0034,0036
0034,0032
0035,0034
0034,0036
0036,0034
0035,0035
0034,0034
0034,0034
0034,0033
0034,0034
0036,0035
0037,0034
0037,0036
0037,0033
0037,0034
0035,0035
0035,0034
0035,0035
0036,0034
0040,0036
0035,0035
0039,0035
0037,0034
0037,0036
0035,0034
0034,0033
0037,0036
0048,0037
0034,0036
0037,0036
0035,0035
0035,0037
0036,0036
0035,0034
0036,0037
0036,0036
0035,0033
0036,0035
0034,0034
0035,0036
0035,0035
0034,0038
0033,0035
0036,0035
0036,0037
0032,0039
0036,0035
0039,0037
0035,0036
0037,0039
0039,0037
0036,0036
0037,0037
0037,0037
0037,0037
0036,0036
0036,0037
0039,0038
0036,0035
0036,0037
0037,0035
0031,0036
0037,0034
0024,0036
0033,0033
0035,0034
0036,0036
0031,0035
0035,0036
0034,0036
0036,0036
0036,0037
0035,0036
0035,0034
0033,0034
0043,0035
0035,0035
0034,0034
0033,0033
0039,0034
0034,0033
0035,0034
0036,0033
0036,0028
0035,0034
0034,0034
0033,0034
0042,0033
0034,0034
0034,0034
0031,0035
0035,0032
0035,0033
0030,0034
0034,0033
0034,0033
0034,0031
0027,0034
0033,0034
0031,0034
0036,0032
0033,0034
0033,0034
0035,0027
0033,0032
0033,0034
0036,0034
0033,0032
0032,0033
0035,0033
0034,0035
0036,0034
0033,0034
0032,0033
0033,0033
0036,0034
0033,0034
0034,0032
0035,0034
0033,0037
0032,0033
0033,0032
0033,0031
0034,0033
0034,0032
0033,0032
0033,0033
0032,0032
0033,0031
0033,0030
0032,0032
0032,0032
0032,0032
0031,0031
0033,0032
0032,0029
0031,0032
0032,0033
0031,0030
0029,0028
0034,0029
0024,0031
0032,0031
0031,0031
0033,0033
0031,0031
0031,0030
0032,0031
0031,0032
0031,0030
0029,0031
0022,0032
0031,0032
0031,0031
0031,0031
0026,0030
0030,0032
0029,0030
0031,0030
0031,0023
0030,0031
0028,0031
0029,0030
0030,0035
0030,0031
0031,0030
0031,0030
0030,0036
0030,0028
0030,0032
0032,0032
0031,0025
0031,0031
0032,0030
0031,0031
0031,0030
0031,0032
0033,0033
0030,0033
0032,0032
0033,0033
0033,0032
0032,0031
0032,0033
0033,0034
0032,0032
0029,0030
0032,0034
0031,0033
0031,0032
0034,0035
0032,0033
0032,0033
0033,0033
0034,0033
0033,0033
0032,0033
0033,0034
0032,0033
0032,0032
0033,0032
0032,0030
0033,0031
0033,0034
0033,0033
0033,0037
0032,0033
0033,0033
0034,0032
0031,0032
0033,0033
0033,0034
0033,0033
0029,0034
0031,0034
0034,0040
0035,0035
0034,0034
0036,0034
0034,0034
0035,0034
0035,0033
0035,0034
0031,0035
0032,0034
0036,0034
0034,0035
0034,0032
0032,0034
0034,0034
0031,0033
0033,0033
0028,0035
0034,0034
0034,0034
0035,0035
0035,0034
0034,0035
0034,0036
0034,0033
0035,0033
0035,0034
0037,0035
0035,0038
0035,0035
0036,0034
0034,0033
0036,0035
0027,0035
0035,0035
0036,0034
0033,0036
0035,0034
0036,0031
0035,0033
0034,0026
0032,0034
0033,0040
0036,0034
0035,0035
0034,0035
0031,0034
0034,0033
0033,0034
0037,0033
0033,0033
0033,0033
0035,0034
0035,0033
0033,0033
0032,0031
0032,0031
0033,0032
0028,0033
0031,0031
0033,0032
0033,0030
0033,0032
0032,0032
0033,0032
0032,0033
0033,0032
0033,0033
0033,0033
0033,0033
0034,0036
0033,0032
0033,0022
0033,0033
0033,0035
0032,0032
0032,0033
0033,0033
0029,0029
0032,0031
0032,0030
0032,0031
0032,0032
0031,0030
0032,0033
0033,0032
0032,0032
0031,0032
0032,0030
0031,0031
0030,0033
0032,0033
0030,0032
0031,0032
0030,0030
0031,0030
0031,0028
0031,0033
0031,0031
0032,0032
0031,0030
0031,0032
0029,0031
0031,0030
0031,0030
0024,0029
0032,0035
0031,0030
0030,0030
0031,0030
0031,0031
0030,0031
0028,0029
0030,0030
0030,0029
0029,0028
0030,0029
0029,0030
0028,0031
0031,0032
0030,0030
0029,0030
0027,0029
0031,0031
0030,0030
0032,0030
0032,0030
0031,0030
0031,0031
0027,0039
0031,0031
0031,0030
0031,0032
0031,0032
0029,0032
0031,0032
0032,0031
0032,0032
0035,0033
0032,0031
0033,0034
0033,0034
0035,0034
0035,0034
0034,0036
0033,0037
0035,0034
0035,0034
0035,0034
0036,0035
0035,0035
0036,0036
0036,0035
0036,0035
0036,0036
0035,0036
0036,0034
0034,0034
0037,0033
0036,0036
0037,0036
0037,0036
0033,0035
0036,0036
0035,0036
0035,0035
0035,0035
0034,0036
0036,0039
0036,0037
0038,0036
0037,0036
0037,0037
0037,0036
0036,0035
0036,0038
0037,0038
0037,0036
0036,0035
0036,0036
0036,0037
0036,0035
0034,0035
0035,0035
0035,0035
0036,0036
0036,0035
0036,0035
0035,0038
0035,0035
0034,0036
0035,0035
0035,0035
0035,0036
0035,0035
0036,0035
0034,0035
0035,0035
0035,0034
0036,0035
0036,0033
0034,0035
0035,0036
0036,0035
0035,0036
0035,0036
0036,0035
0035,0035
0034,0037
0036,0035
0035,0036
0036,0036
0036,0036
0036,0036
0038,0035
0036,0037
0038,0037
0037,0037
0038,0038
0037,0036
0037,0038
0036,0036
0035,0033
0036,0036
0036,0036
0036,0036
0037,0036
0036,0036
0036,0039
0041,0035
0036,0036
0037,0036
0035,0035
0036,0035
0036,0036
0035,0035
0035,0034
0036,0035
0036,0034
0034,0035
0035,0036
0037,0028
0033,0034
0034,0033
0035,0035
0034,0034
0035,0034
0035,0034
0035,0035
0036,0034
0034,0035
0034,0032
0034,0034
0034,0034
0036,0036
0034,0034
0034,0034
0033,0035
0034,0034
0034,0034
0034,0034
0034,0035
0036,0034
0034,0034
0035,0035
0034,0036
0034,0033
0034,0034
0032,0035
0032,0037
0032,0033
0036,0036
0034,0035
0033,0030
0026,0032
0033,0032
0033,0031
0032,0033
0031,0032
0033,0031
0031,0031
0033,0031
0031,0032
0032,0033
0032,0030
0032,0031
0031,0032
0030,0031
0033,0032
0032,0033
0028,0031
0032,0033
0033,0031
0033,0032
0033,0032
0033,0032
0033,0035
0034,0034
0035,0035
0032,0032
0035,0035
0035,0034
0035,0034
0034,0032
0034,0035
0035,0033
0036,0036
0034,0034
0036,0034
0035,0037
0035,0035
0035,0038
0036,0036
0036,0036
0035,0035
0037,0036
0036,0036
0036,0036
0035,0036
0036,0036
0036,0035
0035,0036
0044,0036
0035,0037
0035,0036
0035,0034
0036,0036
0034,0037
0035,0035
0034,0035
0034,0035
0035,0034
0035,0035
0035,0035
0034,0034
0035,0035
0034,0034
0035,0035
0042,0034
0034,0034
0035,0034
0034,0033
0035,0036
0033,0034
0035,0035
0034,0034
0034,0033
0033,0033
0033,0034
0036,0035
0035,0035
0036,0034
0034,0034
0034,0034
0035,0028
0034,0036
0034,0035
0034,0035
0035,0036
0034,0036
0036,0036
0036,0035
0036,0036
0036,0036
0036,0036
0036,0036
0037,0036
0036,0034
0036,0036
0034,0033
0034,0032
0033,0036
0037,0034
0035,0033
0035,0035
0036,0036
0037,0035
0036,0037
0035,0036
0035,0037
0034,0037
0036,0036
0037,0036
0035,0035
0036,0036
0037,0036
0028,0035
0037,0035
0035,0034
0038,0033
0033,0036
0035,0035
0035,0036
0036,0036
0035,0036
0032,0035
0035,0034
0035,0034
0034,0035
0035,0034
0033,0034
0035,0034
0031,0040
0034,0035
0033,0034
0034,0034
0030,0035
0034,0034
0034,0033
0033,0034
0033,0032
0035,0035
0034,0033
0034,0034
0036,0033
0036,0033
0032,0032
0032,0031
0034,0032
0039,0033
0033,0032
0033,0031
0033,0032
0030,0031
0033,0033
0034,0033
0032,0032
0033,0032
0033,0033
0031,0034
0032,0033
0034,0033
0035,0034
0035,0035
0037,0034
0034,0035
0034,0033
0034,0034
0035,0034
0034,0035
0034,0033
0034,0034
0035,0034
0035,0035
0034,0034
0033,0035
0035,0035
0034,0033
0034,0032
0035,0035
0033,0035
0034,0033
0033,0034
0033,0035
0034,0034
0031,0036
0034,0035
0035,0034
0034,0034
0035,0034
0034,0034
0034,0033
0031,0033
0028,0033
0034,0032
0035,0035
0033,0033
0034,0035
0034,0033
0037,0034
0035,0033
0035,0032
0033,0033
0035,0034
0030,0035
0033,0032
0036,0034
0034,0034
0032,0035
0034,0035
0036,0035
0032,0035
0034,0041
0035,0037
0035,0036
0046,0037
0036,0036
0035,0035
0037,0035
0025,0035
0035,0036
0038,0035
0036,0036
0034,0033
0037,0035
0036,0036
0036,0036
0036,0037
0036,0035
0027,0035
0034,0035
0035,0036
0035,0034
0036,0036
0036,0036
0034,0036
0035,0036
0028,0034
0037,0035
0045,0038
0036,0035
0036,0036
0037,0035
0034,0034
0036,0034
0035,0036
0036,0035
0036,0036
0037,0035
0035,0034
0035,0035
0023,0036
0033,0035
0034,0034
0035,0035
0034,0035
0035,0035
0034,0034
0034,0034
0034,0034
0035,0033
0029,0036
0034,0034
0035,0028
0032,0034
0033,0033
0032,0033
0042,0033
0032,0033
0037,0033
0034,0033
0038,0034
0035,0032
0032,0032
0032,0033
0033,0034
0033,0033
0026,0032
0032,0033
0032,0043
0034,0033
0033,0030
0034,0033
0032,0027
0034,0034
0033,0030
0034,0033
0034,0031
0033,0032
0032,0032
0034,0034
0033,0034
0032,0032
0035,0029
0033,0032
0031,0031
0034,0031
0032,0030
0033,0033
0031,0032
0036,0033
0036,0026
0033,0033
0036,0034
0033,0034
0035,0027
0032,0032
0033,0033
0034,0033
0033,0041
0034,0032
0032,0033
0034,0034
0033,0033
0034,0034
0033,0035
0033,0033
0034,0034
0033,0035
0033,0032
0034,0033
0035,0033
0030,0033
0034,0032
0033,0033
0034,0026
0033,0033
0033,0035
0034,0034
0034,0033
0033,0033
0034,0034
0034,0031
0032,0034
0034,0035
0035,0035
0034,0033
0032,0034
0034,0033
0035,0033
0035,0035
0032,0032
0032,0033
0031,0033
0033,0033
0032,0033
0033,0034
0034,0040
0033,0033
0031,0034
0031,0033
0033,0031
0032,0033
0032,0031
0035,0034
0033,0033
0033,0033
0034,0034
0030,0034
0032,0038
0033,0033
0041,0034
0032,0032
0032,0034
0032,0032
0032,0034
0031,0033
0031,0029
0033,0032
0034,0032
0032,0033
0034,0032
0032,0031
0033,0036
0033,0033
0031,0038
0034,0031
0031,0037
0028,0033
0034,0024
0044,0032
0032,0032
0033,0032
0032,0037
0033,0032
0031,0031
0031,0033
0034,0032
0031,0031
0033,0035
0033,0032
0030,0033
0032,0030
0033,0037
0041,0032
0033,0030
0033,0033
0033,0034
0029,0032
0032,0034
0032,0034
0034,0034
0033,0035
0035,0034
0033,0035
0035,0033
0033,0034
0033,0032
0034,0035
0035,0030
0033,0035
0035,0034
0034,0032
0034,0034
0034,0034
0033,0036
0035,0032
0036,0038
0035,0034
0034,0033
0034,0033
0032,0033
0035,0034
0034,0034
0033,0034
0032,0038
0033,0040
0035,0032
0034,0033
0034,0034
0028,0033
0032,0033
0035,0034
0034,0034
0033,0034
0033,0033
0034,0033
0035,0033
0039,0034
0034,0032
0031,0035
0033,0031
0032,0033
0032,0033
0031,0030
0032,0021
0032,0032
0035,0030
0033,0026
0033,0033
0033,0033
0032,0031
0033,0031
0031,0033
0034,0033
0032,0032
0033,0033
0034,0034
0033,0034
0034,0032
0034,0033
0035,0034
0036,0034
0035,0032
0030,0033
0035,0035
0035,0034
0034,0036
0034,0034
0036,0037
0034,0028
0034,0035
0036,0035
0039,0037
0036,0035
0035,0035
0037,0035
0034,0035
0033,0034
0035,0034
0034,0036
0036,0035
0034,0035
0035,0036
0035,0035
0037,0036
0034,0035
0036,0034
0036,0034
0035,0035
0041,0035
0035,0035
0034,0034
0033,0033
0035,0037
0032,0035
0034,0034
0034,0034
0035,0034
0034,0036
0033,0035
0033,0034
0035,0033
0034,0033
0033,0034
0033,0032
0034,0034
0034,0034
0035,0033
0034,0035
0033,0034
0032,0034
0031,0036
0034,0033
0035,0024
0034,0033
0034,0033
0033,0034
0033,0034
0032,0034
0037,0041
0034,0034
0035,0034
0035,0036
0039,0034
0034,0035
0033,0037
0034,0033
0035,0034
0035,0034
0034,0033
0037,0034
0033,0034
0034,0035
0029,0043
0034,0033
0033,0033
0032,0031
0034,0033
0033,0034
0032,0029
0032,0032
0034,0032
0032,0033
0039,0033
0034,0035
0031,0034
0033,0033
0033,0032
0031,0034
0034,0033
0034,0032
0031,0029
0035,0033
0035,0035
0035,0032
0039,0034
0035,0033
0034,0036
0034,0034
0032,0032
0035,0033
0033,0034
0033,0034
0034,0035
0032,0033
0035,0033
0035,0035
0033,0035
0035,0035
0036,0027
0034,0033
0036,0038
0035,0034
0035,0033
0036,0035
0033,0030
0035,0036
0034,0032
0035,0033
0034,0033
0036,0035
0034,0034
0035,0036
0036,0034
0033,0033
0034,0034
0033,0033
0032,0037
0033,0033
0033,0036
0034,0034
0036,0026
0035,0035
0036,0031
0034,0036
0035,0034
0036,0035
0035,0036
0035,0034
0039,0035
0035,0035
0035,0032
0033,0034
0037,0036
0023,0035
0035,0035
0035,0035
0034,0036
0035,0035
0033,0034
0031,0033
0034,0034
0033,0034
0037,0034
0035,0035
0034,0035
0035,0036
0038,0034
0036,0036
0035,0036
0034,0034
0037,0036
0034,0033
0036,0035
0035,0034
0035,0033
0035,0033
0036,0034
0035,0034
0036,0035
0036,0032
0036,0035
0035,0036
0034,0033
0034,0033
0032,0035
0031,0034
0034,0032
0033,0032
0033,0036
0033,0033
0035,0035
0035,0034
0034,0033
0034,0034
0039,0035
0034,0033
0033,0034
0034,0035
0033,0033
0035,0033
0038,0034
0032,0031
0035,0033
0034,0035
0034,0034
0030,0032
0036,0033
0044,0034
0033,0033
0034,0033
0033,0035
0033,0034
0034,0033
0030,0041
0033,0030
0033,0033
0034,0035
0033,0033
0033,0031
0032,0033
0033,0031
0032,0031
0034,0032
0027,0032
0033,0032
0033,0033
0033,0032
0033,0031
0033,0033
0032,0032
0033,0032
0031,0033
0029,0032
0042,0030
0031,0032
0030,0032
0031,0033
0032,0031
0031,0033
0032,0031
0033,0031
0032,0033
0031,0038
0031,0032
0033,0040
0032,0032
0031,0033
0033,0034
0033,0032
0033,0034
0033,0033
0033,0031
0031,0033
0034,0033
0032,0032
0034,0030
0032,0032
0032,0032
0032,0032
0031,0032
0032,0033
0033,0034
0033,0032
0033,0033
0034,0034
0033,0032
0034,0034
0034,0033
0036,0033
0034,0034
0033,0034
0034,0035
0034,0034
0035,0037
0036,0034
0033,0032
0034,0034
0035,0034
0034,0035
0033,0033
0034,0035
0035,0034
0035,0033
0034,0034
0035,0036
0036,0035
0036,0034
0034,0038
0033,0034
0035,0035
0035,0032
0035,0034
0033,0036
0036,0034
0034,0034
0034,0035
0035,0033
0033,0033
0035,0035
0034,0034
0035,0033
0035,0035
0034,0034
0030,0043
0034,0035
0033,0035
0034,0034
0033,0031
0032,0034
0034,0035
0035,0035
0033,0035
0036,0036
0038,0035
0033,0034
0036,0035
0035,0036
0035,0035
0035,0035
0034,0033
0039,0034
0035,0035
0036,0036
0036,0037
0035,0037
0035,0036
0037,0037
0037,0036
0036,0034
0037,0036
0038,0035
0035,0036
0037,0036
0034,0037
0035,0034
0038,0037
0035,0037
0036,0036
0039,0039
0037,0036
0035,0035
0037,0035
0036,0036
0036,0035
0035,0036
0036,0035
0036,0035
0036,0036
0035,0036
0037,0036
0035,0035
0037,0035
0035,0036
0036,0034
0038,0035
0036,0037
0036,0036
0036,0036
0034,0035
0036,0036
0037,0037
0036,0036
0036,0035
0036,0036
0036,0035
0036,0036
0036,0034
0034,0034
0034,0035
0036,0035
0035,0035
0035,0033
0034,0035
0035,0033
0034,0033
0033,0033
0035,0034
0034,0035
0034,0034
0034,0035
0033,0034
0035,0033
0033,0033
0031,0034
0034,0034
0034,0034
0035,0034
0034,0034
0034,0037
0035,0034
0035,0034
0036,0033
0034,0033
0034,0034
0034,0034
0034,0031
0033,0034
0033,0034
0035,0033
0032,0032
0032,0034
0034,0034
0034,0036
0036,0035
0036,0034
0035,0033
0034,0036
0034,0034
0035,0034
0035,0035
0035,0034
0036,0034
0035,0036
0035,0033
0035,0035
0036,0033
0034,0034
0033,0035
0035,0034
0034,0034
0034,0033
0034,0032
0032,0034
0033,0033
0034,0033
0034,0035
0034,0034
0034,0035
0035,0034
0034,0034
0034,0033
0035,0036
0035,0035
0027,0036
0035,0036
0035,0035
0037,0035
0035,0034
0036,0036
0036,0036
0034,0033
0035,0035
0037,0035
0035,0035
0035,0035
0035,0034
0035,0035
0034,0035
0028,0036
0036,0036
0037,0035
0035,0036
0037,0037
0036,0037
0035,0035
0035,0035
0037,0035
0035,0035
0036,0034
0036,0037
0035,0036
0036,0035
0034,0035
0034,0036
0030,0035
0036,0034
0037,0034
0036,0035
0036,0037
0036,0033
0034,0034
0036,0033
0035,0035
0034,0040
0037,0035
0035,0036
0034,0036
0036,0036
0035,0036
0037,0036
0036,0035
0035,0037
0036,0034
0035,0036
0033,0034
0035,0035
0034,0034
0036,0034
0034,0034
0037,0035
0035,0035
0034,0033
0035,0033
0033,0035
0031,0033
0034,0035
0027,0034
0034,0035
0033,0035
0035,0035
0035,0036
0035,0035
0035,0033
0036,0034
0035,0033
0033,0035
0035,0035
0035,0035
0033,0035
0035,0034
0034,0033
0034,0034
0040,0030
0034,0034
0035,0035
0037,0035
0035,0036
0034,0034
0034,0033
0035,0034
0036,0034
0034,0035
0034,0034
0034,0033
0034,0034
0035,0034
0035,0035
0033,0034
0040,0034
0036,0034
0035,0032
0032,0034
0033,0035
0034,0034
0034,0035
0035,0034
0035,0033
0031,0033
0034,0034
0035,0035
0033,0033
0033,0033
0032,0033
0033,0032
0035,0033
0031,0033
0034,0034
0033,0032
0033,0035
0032,0032
0035,0034
0033,0034
0033,0034
0037,0035
0035,0035
0033,0032
0034,0034
0034,0033
0032,0034
0033,0033
0034,0032
0033,0033
0033,0033
0034,0032
0033,0032
0032,0032
0033,0033
0036,0033
0033,0034
0034,0032
0033,0033
0032,0034
0032,0033
0034,0033
0033,0033
0033,0035
0033,0034
0037,0033
0033,0029
0034,0032
0033,0033
0034,0033
0033,0034
0032,0030
0034,0033
0030,0032
0033,0033
0033,0033
0033,0031
0035,0033
0033,0033
0032,0033
0039,0027
0032,0032
0032,0032
0030,0033
0029,0032
0031,0033
0032,0033
0033,0033
0033,0032
0033,0032
0032,0031
0033,0030
0034,0033
0030,0032
0032,0031
0033,0031
0031,0033
0033,0032
0033,0032
0028,0035
0033,0033
0032,0033
0033,0033
0027,0032
0031,0033
0034,0034
0034,0033
0035,0035
0036,0034
0034,0032
0035,0035
0034,0034
0034,0034
0028,0035
0035,0034
0034,0034
0035,0037
0036,0036
0036,0035
0031,0035
0036,0036
0035,0036
0036,0037
0034,0036
0036,0035
0037,0036
0036,0036
0037,0036
0033,0044
0032,0036
0035,0035
0043,0038
0036,0036
0029,0036
0037,0036
0037,0036
0036,0037
0034,0037
0037,0037
0036,0035
0037,0036
0035,0037
0036,0036
0034,0036
0037,0037
0035,0036
0036,0036
0037,0036
0035,0034
0034,0035
0035,0037
0035,0033
0034,0034
0046,0032
0032,0036
0036,0033
0034,0033
0030,0033
0035,0035
0036,0035
0034,0035
0032,0036
0034,0034
0030,0036
0034,0036
0035,0035
0034,0033
0032,0034
0034,0032
0034,0033
0033,0032
0028,0033
0034,0033
0033,0033
0034,0034
0034,0034
0033,0033
0034,0034
0034,0033
0032,0030
0034,0034
0036,0036
0034,0034
0034,0033
0034,0033
0034,0036
0035,0035
0038,0035
0034,0034
0037,0036
0035,0034
0033,0034
0035,0031
0041,0033
0034,0035
0036,0034
0035,0033
0026,0035
0034,0034
0033,0037
0034,0034
0039,0032
0034,0034
0033,0033
0033,0035
0036,0041
0034,0035
0034,0034
0039,0035
0035,0034
0035,0033
0034,0032
0036,0034
0042,0032
0031,0033
0030,0044
0033,0035
0032,0034
0031,0033
0034,0031
0033,0032
0036,0028
0035,0033
0034,0032
0033,0034
0029,0043
0033,0032
0036,0032
0032,0033
0034,0025
0033,0032
0032,0034
0033,0034
0034,0033
0034,0033
0034,0033
0033,0032
0033,0031
0031,0034
0033,0032
0034,0034
0034,0034
0033,0033
0034,0032
0034,0032
0031,0035
0034,0034
0031,0034
0033,0035
0032,0031
0033,0034
0032,0039
0031,0033
0033,0032
0034,0035
0036,0034
0033,0033
0036,0034
0036,0034
0040,0034
0035,0033
0035,0034
0034,0035
0036,0034
0036,0033
0034,0037
0035,0034
0039,0033
0035,0034
0034,0034
0032,0033
0033,0032
0035,0035
0032,0034
0034,0034
0042,0036
0035,0035
0038,0034
0034,0034
0033,0032
0035,0034
0033,0033
0034,0033
0033,0039
0034,0034
0041,0035
0033,0033
0031,0033
0032,0032
0035,0032
0033,0033
0033,0032
0035,0032
0033,0035
0034,0032
0034,0039
0033,0033
0033,0038
0033,0034
0033,0034
0033,0034
0034,0033
0033,0034
0035,0034
0034,0034
0035,0034
0033,0033
0033,0039
0032,0044
0033,0033
0036,0033
0034,0032
0033,0033
0035,0033
0033,0033
0033,0033
0033,0033
0033,0031
0032,0033
0032,0032
0030,0031
0033,0035
0033,0033
0031,0033
0031,0029
0032,0037
0033,0032
0033,0033
0027,0032
0031,0033
0033,0033
0032,0030
0032,0031
0032,0031
0032,0032
0031,0033
0033,0034
0032,0031
0036,0033
0032,0031
0033,0032
0033,0032
0037,0032
0034,0033
0033,0033
0033,0033
0039,0034
0032,0031
0034,0033
0033,0032
0033,0033
0033,0032
0033,0034
0032,0031
0034,0032
0034,0034
0032,0032
0029,0032
0039,0027
0033,0033
0030,0032
0032,0032
0033,0032
0032,0031
0033,0030
0031,0030
0031,0031
0031,0032
0033,0033
0032,0032
0025,0033
0030,0031
0033,0034
0031,0031
0030,0032
0030,0031
0032,0025
0032,0032
0029,0031
0031,0031
0031,0031
0031,0030
0032,0031
0031,0031
0032,0031
0030,0031
0032,0036
0031,0030
0030,0030
0029,0029
0031,0034
0030,0030
0030,0031
0030,0030
0027,0025
0030,0028
0030,0031
0031,0030
0037,0030
0031,0030
0030,0031
0031,0030
0032,0034
0028,0029
0031,0034
0031,0030
0032,0030
0031,0030
0030,0031
0031,0031
0030,0029
0031,0029
0031,0030
0031,0030
0031,0031
0029,0029
0029,0029
0029,0030
0028,0028
0029,0029
0030,0030
0033,0032
0035,0030
0032,0032
0031,0029
0032,0030
0034,0030
0030,0030
0029,0031
0031,0031
0031,0031
0031,0030
0031,0031
0031,0031
0031,0032
0030,0031
0030,0031
0031,0029
0029,0027
0031,0031
0031,0031
0028,0030
0030,0030
0029,0031
0028,0025
0030,0031
0031,0030
0032,0032
0031,0031
0030,0031
0032,0033
0033,0032
0028,0030
0034,0033
0035,0037
0032,0032
0033,0033
0033,0034
0034,0041
0034,0032
0026,0037
0035,0033
0027,0033
0035,0033
0034,0032
0035,0035
0036,0042
0036,0036
0040,0036
0036,0037
0036,0035
0037,0035
0035,0033
0036,0037
0035,0035
0035,0034
0035,0040
0033,0036
0033,0035
0035,0035
0035,0033
0034,0035
0037,0036
0036,0036
0037,0032
0036,0034
0035,0034
0035,0035
0035,0032
0032,0034
0034,0034
0034,0034
0036,0035
0033,0036
0036,0033
0036,0034
0035,0037
0036,0035
0032,0037
0035,0035
0036,0036
0036,0035
0036,0029
0032,0035
0033,0033
0034,0035
0023,0032
0036,0032
0033,0032
0034,0032
0034,0035
0035,0035
0034,0035
0033,0032
0035,0036
0035,0034
0035,0034
0034,0035
0033,0030
0034,0034
0036,0036
0035,0036
0036,0035
0031,0032
0037,0033
0034,0033
0034,0032
0033,0032
0034,0033
0035,0034
0034,0033
0035,0032
0040,0034
0033,0034
0030,0032
0034,0034
0034,0037
0034,0033
0033,0033
0034,0034
0033,0034
0035,0034
0033,0033
0038,0033
0035,0036
0034,0033
0034,0033
0035,0034
0035,0036
0035,0034
0037,0041
0035,0035
0035,0037
0035,0037
0035,0033
0032,0033
0035,0040
0035,0034
0033,0036
0035,0035
0033,0035
0033,0033
0034,0034
0034,0035
0035,0038
0033,0034
0034,0038
0034,0034
0033,0023
0035,0034
0035,0036
0034,0036
0035,0034
0034,0033
0035,0038
0034,0034
0034,0034
0035,0033
0034,0035
0035,0035
0036,0036
0034,0034
0034,0034
0036,0035
0034,0034
0035,0034
0034,0034
0035,0034
0035,0034
0035,0033
0036,0040
0036,0034
0035,0035
0035,0034
0035,0034
0034,0034
0034,0034
0034,0033
0032,0034
0034,0034
0036,0034
0035,0033
0036,0032
0035,0033
0034,0034
0035,0034
0035,0034
0036,0034
0032,0034
0035,0032
0034,0033
0033,0033
0032,0035
0035,0035
0035,0032
0034,0033
0034,0033
0033,0032
0033,0034
0034,0034
0035,0033
0032,0033
0034,0033
0036,0035
0034,0033
0035,0033
0035,0034
0034,0032
0034,0034
0035,0032
0031,0033
0034,0034
0034,0034
0034,0034
0033,0033
0034,0035
0033,0034
0033,0033
0034,0034
0034,0032
0034,0034
0033,0034
0032,0033
0034,0033
0035,0034
0033,0035
0034,0036
0035,0034
0033,0034
0035,0033
0035,0034
0034,0033
0036,0034
0033,0033
0034,0035
0033,0031
0033,0034
0032,0033
0033,0033
0033,0033
0033,0034
0033,0032
0033,0033
0033,0033
0032,0034
0034,0034
0034,0032
0033,0034
0033,0032
0033,0032
0033,0032
0038,0032
0033,0033
0031,0033
0032,0032
0033,0032
0033,0031
0032,0033
0030,0033
0030,0032
0032,0032
0032,0031
0031,0032
0031,0031
0033,0031
0033,0033
0033,0032
0034,0034
0033,0032
0033,0035
0032,0031
0033,0031
0033,0031
0033,0034
0034,0031
0031,0032
0033,0032
0031,0032
0032,0032
0032,0031
0031,0031
0031,0030
0027,0031
0031,0022
0032,0031
0029,0030
0031,0030
0030,0031
0032,0031
0030,0030
0032,0032
0030,0028
0030,0031
0032,0030
0032,0031
0029,0031
0030,0030
0031,0030
0031,0031
0031,0034
0032,0032
0033,0030
0032,0030
0032,0028
0031,0034
0033,0031
0031,0030
0035,0035
0033,0034
0032,0032
0032,0033
0033,0033
0033,0033
0036,0033
0034,0033
0033,0035
0035,0032
0032,0035
0034,0033
0034,0034
0033,0030
0033,0034
0035,0035
0031,0035
0035,0034
0034,0035
0035,0033
0035,0034
0033,0035
0035,0035
0034,0034
0034,0039
0029,0034
0035,0034
0035,0035
0034,0035
0035,0035
0035,0035
0035,0035
0036,0038
0036,0036
0036,0036
0036,0035
0036,0036
0036,0034
0035,0036
0036,0035
0036,0035
0036,0035
0036,0036
0036,0036
0035,0034
0036,0034
0036,0035
0033,0036
0038,0034
0035,0036
0032,0034
0034,0034
0032,0035
0034,0032
0035,0036
0035,0035
0036,0041
0035,0034
0034,0034
0035,0034
0035,0034
0034,0034
0033,0032
0031,0032
0034,0035
0034,0032
0033,0032
0036,0032
0034,0035
0034,0035
0034,0035
0034,0033
0035,0033
0034,0035
0034,0033
0034,0035
0036,0033
0036,0030
0035,0035
0031,0033
0036,0034
0035,0034
0034,0035
0032,0034
0036,0035
0033,0034
0037,0034
0035,0033
0035,0035
0039,0033
0034,0034
0035,0036
0032,0037
0035,0034
0032,0035
0036,0034
0036,0038
0029,0035
0034,0035
0035,0035
0035,0035
0036,0036
0037,0034
0036,0036
0036,0035
0036,0034
0036,0035
0035,0036
0035,0035
0036,0036
0035,0035
0035,0035
0037,0036
0036,0036
0037,0036
0036,0036
0035,0036
0036,0034
0035,0034
0036,0036
0036,0035
0035,0036
0036,0033
0036,0035
0032,0036
0033,0035
0034,0036
0036,0035
0036,0037
0035,0035
0035,0034
0037,0036
0036,0034
0033,0034
0035,0035
0034,0034
0036,0035
0036,0035
0035,0036
0036,0035
0038,0033
0033,0031
0033,0035
0033,0033
0033,0032
0034,0034
0035,0037
0034,0034
0033,0032
0033,0034
0033,0033
0034,0034
0034,0034
0035,0037
0035,0034
0035,0034
0035,0034
0034,0034
0037,0035
0032,0033
0032,0032
0035,0036
0033,0034
0035,0033
0035,0034
0035,0032
0034,0034
0034,0034
0035,0034
0033,0034
0034,0033
0034,0034
0033,0035
0034,0034
0035,0036
0034,0036
0035,0034
0034,0036
0038,0033
0035,0032
0034,0034
0034,0033
0033,0033
0034,0034
0034,0033
0034,0034
0034,0034
0035,0034
0034,0034
0034,0033
0035,0034
0034,0035
0032,0033
0035,0036
0033,0033
0034,0033
0034,0035
0032,0036
0035,0033
0036,0035
0035,0035
0036,0036
0035,0033
0035,0035
0035,0035
0035,0035
0035,0034
0034,0035
0036,0034
0036,0037
0038,0039
0036,0036
0037,0037
0033,0035
0036,0036
0037,0036
0036,0036
0036,0036
0036,0036
0036,0036
0036,0036
0035,0035
0035,0036
0036,0036
0037,0036
0035,0036
0036,0035
0035,0035
0036,0036
0036,0036
0036,0037
0035,0034
0033,0034
0033,0036
0032,0033
0038,0036
0036,0035
0034,0034
0035,0035
0034,0034
0033,0034
0033,0034
0034,0036
0035,0036
0036,0035
0035,0035
0033,0034
0033,0032
0034,0032
0034,0032
0037,0034
0033,0034
0036,0034
0035,0035
0034,0034
0035,0033
0034,0034
0035,0033
0035,0034
0035,0035
0035,0034
0035,0034
0034,0034
0035,0034
0035,0034
0037,0036
0033,0034
0036,0036
0035,0035
0035,0035
0035,0036
0035,0035
0036,0035
0036,0036
0043,0035
0035,0034
0035,0035
0036,0035
0035,0035
0036,0035
0037,0035
0033,0038
0030,0035
0036,0035
0035,0034
0035,0034
0034,0035
0034,0034
0035,0035
0035,0033
0027,0034
0033,0034
0036,0036
0035,0034
0039,0035
0035,0035
0036,0034
0035,0035
0036,0036
0039,0038
0035,0035
0036,0035
0045,0036
0038,0036
0045,0035
0036,0033
0036,0036
0040,0036
0035,0036
0037,0037
0037,0036
0036,0037
0037,0037
0036,0036
0036,0035
0035,0037
0037,0037
0036,0037
0037,0036
0036,0037
0036,0036
0036,0036
0036,0038
0036,0035
0038,0031
0036,0036
0037,0036
0036,0035
0036,0037
0037,0036
0031,0039
0036,0036
0033,0034
0036,0036
0035,0035
0035,0035
0038,0037
0036,0037
0038,0033
0039,0035
0044,0038
0037,0036
0037,0036
0034,0035
0037,0036
0036,0042
0034,0036
0036,0034
0034,0035
0036,0037
0047,0036
0036,0035
0035,0035
0035,0035
0036,0034
0036,0034
0040,0035
0035,0034
0032,0035
0035,0034
0035,0035
0031,0034
0035,0035
0037,0035
0028,0035
0034,0034
0025,0035
0037,0035
0037,0036
0037,0035
0041,0036
0036,0033
0035,0035
0035,0036
0039,0036
0036,0037
0035,0036
0036,0038
0043,0033
0037,0035
0036,0036
0037,0036
0036,0036
0034,0036
0036,0026
0035,0033
0036,0036
0035,0035
0036,0034
0037,0034
0037,0035
0036,0035
0035,0035
0035,0037
0043,0034
0038,0035
0036,0030
0035,0035
0036,0039
0036,0036
0034,0032
0034,0034
0035,0037
0037,0036
0038,0033
0036,0037
0033,0043
0035,0037
0035,0034
0036,0035
0037,0036
0037,0036
0035,0036
0037,0037
0036,0038
0037,0037
0037,0039
0037,0037
0036,0036
0038,0036
0036,0030
0037,0037
0034,0035
0037,0037
0035,0034
0037,0036
0036,0035
0037,0037
0037,0034
0036,0037
0036,0038
0036,0035
0035,0037
0035,0034
0037,0038
0037,0036
0041,0038
0034,0035
0035,0036
0035,0035
0036,0034
0036,0036
0036,0039
0035,0034
0035,0035
0036,0037
0036,0037
0038,0035
0036,0035
0032,0035
0033,0035
0035,0034
0043,0035
0035,0034
0033,0035
0033,0033
0033,0034
0035,0034
0032,0036
0027,0036
0035,0028
0035,0034
0032,0034
0034,0033
0033,0034
0034,0033
0032,0034
0034,0033
0035,0033
0033,0034
0039,0033
0034,0034
0033,0034
0033,0034
0034,0036
0034,0033
0034,0033
0032,0033
0034,0032
0031,0033
0033,0023
0032,0032
0032,0034
0034,0033
0034,0033
0033,0033
0032,0037
0027,0033
0032,0034
0033,0033
0034,0033
0032,0031
0033,0032
0032,0032
0033,0024
0040,0033
0032,0035
0032,0033
0033,0037
0032,0032
0033,0031
0032,0030
0032,0030
0037,0032
0033,0032
0032,0032
0033,0031
0034,0033
0031,0034
0032,0032
0033,0030
0034,0033
0031,0032
0039,0031
0034,0033
0032,0030
0033,0032
0034,0034
0032,0035
0036,0033
0033,0032
0034,0033
0033,0032
0032,0032
0033,0032
0034,0034
0032,0032
0033,0034
0033,0032
0033,0032
0034,0035
0034,0035
0034,0033
0034,0033
0035,0034
0034,0033
0034,0034
0034,0035
0035,0033
0033,0033
0035,0034
0034,0034
0035,0034
0042,0032
0033,0033
0036,0034
0034,0032
0039,0035
0034,0033
0034,0031
0035,0033
0033,0034
0033,0034
0034,0035
0035,0035
0036,0034
0033,0035
0034,0034
0034,0033
0032,0034
0034,0033
0033,0039
0036,0034
0040,0029
0034,0034
0033,0032
0034,0033
0033,0034
0034,0035
0033,0032
0034,0033
0031,0034
0031,0035
0033,0031
0033,0032
0035,0034
0034,0034
0031,0033
0033,0033
0033,0035
0034,0032
0034,0035
0035,0034
0035,0034
0033,0033
0035,0034
0035,0035
0035,0038
0035,0034
0038,0036
0035,0034
0037,0035
0036,0038
0034,0034
0035,0034
0035,0036
0035,0036
0035,0036
0036,0035
0032,0036
0036,0036
0035,0035
0034,0034
0036,0041
0037,0036
0036,0035
0036,0038
0036,0035
0037,0037
0036,0037
0036,0036
0034,0038
0037,0035
0037,0036
0037,0036
0035,0036
0035,0036
0036,0037
0034,0035
0036,0034
0035,0035
0034,0035
0034,0034
0035,0035
0035,0034
0035,0035
0035,0035
0035,0034
0035,0035
0039,0035
0035,0035
0039,0034
0036,0036
0036,0035
0036,0035
0035,0034
0035,0034
0035,0034
0034,0035
0035,0034
0036,0035
0028,0035
0035,0037
0037,0036
0035,0035
0034,0033
0035,0034
0037,0037
0034,0035
0034,0034
0036,0036
0037,0036
0034,0036
0027,0035
0035,0036
0035,0036
0035,0035
0038,0036
0034,0034
0035,0035
0035,0034
0036,0034
0037,0034
0035,0035
0035,0033
0036,0034
0036,0034
0035,0035
0033,0034
0041,0036
0033,0033
0032,0034
0034,0034
0035,0034
0034,0034
0032,0032
0034,0035
0033,0035
0034,0035
0035,0042
0035,0035
0033,0035
0034,0035
0033,0034
0037,0033
0033,0034
0033,0033
0033,0034
0034,0035
0034,0033
0033,0033
0033,0037
0033,0033
0034,0034
0034,0032
0033,0034
0032,0033
0034,0035
0033,0034
0032,0029
0032,0032
0035,0025
0032,0032
0033,0032
0034,0034
0032,0033
0035,0035
0033,0034
0034,0034
0035,0035
0033,0034
0034,0034
0033,0033
0034,0034
0035,0033
0035,0041
0033,0033
0034,0032
0035,0033
0034,0033
0033,0032
0034,0034
0032,0031
0036,0034
0032,0034
0033,0035
0034,0035
0033,0032
0035,0035
0032,0031
0034,0035
0035,0033
0034,0034
0034,0034
0033,0032
0033,0034
0033,0033
0033,0032
0033,0034
0034,0031
0033,0032
0033,0033
0033,0033
0034,0033
0033,0031
0026,0031
0033,0032
0033,0032
0032,0032
0033,0032
0032,0033
0034,0033
0033,0033
0033,0032
0033,0034
0034,0034
0033,0033
0033,0034
0034,0035
0033,0032
0034,0033
0031,0032
0035,0035
0036,0034
0032,0030
0034,0034
0032,0035
0034,0034
0034,0034
0032,0031
0033,0033
0034,0033
0033,0033
0033,0034
0033,0033
0032,0032
0038,0033
0034,0033
0033,0033
0033,0033
0033,0033
0034,0035
0034,0032
0034,0036
0034,0033
0041,0033
0033,0034
0033,0034
0032,0033
0033,0035
0034,0033
0034,0026
0032,0033
0033,0032
0033,0033
0031,0032
0034,0034
0033,0034
0033,0033
0034,0034
0033,0034
0035,0034
0034,0033
0034,0033
0034,0034
0033,0033
0034,0033
0033,0032
0033,0033
0033,0033
0034,0033
0032,0033
0034,0032
0033,0033
0032,0033
0032,0031
0033,0035
0032,0034
0034,0032
0033,0034
0034,0034
0034,0033
0034,0034
0034,0036
0034,0033
0035,0035
0033,0031
0032,0035
0035,0034
0035,0036
0033,0034
0035,0035
0034,0035
0035,0034
0035,0033
0034,0034
0033,0034
0034,0034
0037,0033
0034,0033
0040,0034
0034,0033
0033,0033
0032,0034
0034,0034
0036,0033
0034,0034
0034,0034
0033,0034
0033,0034
0033,0035
0034,0034
0034,0033
0034,0033
0034,0033
0034,0033
0030,0033
0033,0033
0031,0033
0033,0034
0034,0032
0035,0031
0032,0034
0031,0031
0033,0032
0032,0033
0033,0032
0031,0034
0032,0033
0032,0033
0033,0034
0033,0033
0032,0027
0032,0032
0034,0034
0034,0034
0034,0034
0034,0034
0034,0031
0033,0034
0033,0033
0034,0034
0032,0034
0035,0033
0033,0034
0030,0031
0034,0034
0034,0033
0033,0034
0034,0033
0036,0033
0033,0033
0033,0033
0033,0034
0032,0034
0031,0031
0034,0034
0035,0034
0034,0035
0034,0033
0035,0033
0034,0032
0035,0033
0034,0033
0033,0032
0033,0034
0034,0030
0031,0034
0035,0034
0036,0031
0035,0033
0035,0037
0035,0033
0034,0034
0035,0035
0034,0033
0034,0032
0033,0034
0033,0033
0034,0034
0036,0033
0032,0033
0032,0032
0033,0032
0032,0033
0033,0034
0033,0033
0034,0034
0033,0032
0034,0033
0033,0033
0035,0033
0033,0034
0034,0033
0033,0034
0034,0035
0036,0033
0032,0033
0031,0034
0034,0033
0034,0033
0035,0034
0034,0035
0035,0035
0034,0032
0035,0034
0033,0033
0025,0033
0033,0034
0034,0033
0033,0033
0034,0034
0033,0034
0034,0033
0030,0032
0032,0033
0033,0032
0033,0034
0034,0033
0033,0031
0033,0033
0030,0033
0033,0032
0033,0033
0035,0034
0034,0035
0034,0035
0034,0034
0036,0034
0046,0036
0035,0034
0035,0035
0035,0033
0034,0034
0033,0034
0034,0033
0034,0036
0035,0035
0032,0034
0034,0035
0033,0033
0031,0033
0036,0035
0032,0030
0034,0033
0025,0034
0034,0034
0032,0033
0033,0033
0033,0033
0032,0034
0033,0033
0033,0033
0033,0034
0028,0033
0035,0033
0034,0033
0032,0032
0033,0030
0034,0034
0031,0032
0028,0033
0033,0033
0033,0034
0030,0033
0033,0032
0032,0033
0045,0033
0033,0032
0033,0031
0035,0031
0035,0035
0034,0032
0031,0034
0030,0032
0033,0033
0034,0033
0028,0034
0033,0031
0032,0033
0034,0033
0032,0032
0027,0033
0029,0033
0032,0033
0035,0033
0045,0034
0032,0033
0035,0034
0034,0033
0029,0034
0034,0034
0035,0034
0035,0034
0034,0036
0035,0034
0035,0036
0036,0036
0035,0036
0036,0036
0029,0035
0038,0037
0038,0037
0036,0036
0035,0035
0042,0039
0041,0038
0038,0036
0038,0037
0037,0038
0037,0037
0039,0037
0045,0037
0039,0039
0038,0039
0039,0038
0038,0038
0037,0038
0045,0039
0039,0039
0045,0041
0039,0040
0038,0039
0040,0041
0040,0040
0040,0039
0042,0036
0041,0039
0045,0041
0041,0039
0043,0042
0042,0040
0042,0041
0042,0041
0046,0037
0044,0041
0042,0041
0042,0041
0042,0040
0041,0043
0042,0041
0033,0043
0042,0041
0043,0042
0044,0043
0045,0042
0044,0045
0044,0044
0045,0047
0045,0044
0043,0044
0046,0045
0045,0044
0042,0042
0046,0043
0046,0044
0046,0045
0046,0046
0045,0046
0048,0045
0050,0043
0048,0047
0047,0046
0047,0047
0044,0055
0047,0047
0044,0046
0048,0047
0047,0057
0045,0048
0041,0048
0049,0047
0047,0048
0048,0046
0047,0055
0049,0049
0050,0053
0049,0049
0048,0049
0049,0049
0048,0050
0047,0049
0057,0045
0050,0049
0050,0046
0050,0047
0051,0050
0049,0048
0049,0049
0049,0048
0049,0042
0047,0048
0049,0049
0050,0050
0050,0046
0050,0051
0051,0051
0049,0050
0050,0051
0051,0050
0049,0049
0052,0050
0051,0042
0049,0049
0050,0050
0053,0047
0050,0054
0051,0049
0049,0049
0053,0050
0049,0050
0049,0049
0049,0042
0049,0050
0049,0047
0049,0047
0047,0048
0049,0049
0049,0048
0052,0049
0050,0048
0050,0050
0050,0048
0051,0051
0047,0049
0051,0049
0050,0049
0052,0049
0050,0049
0052,0050
0050,0049
0050,0047
0049,0049
0049,0048
0047,0048
0049,0049
0048,0048
0049,0050
0050,0049
0049,0050
0048,0051
0051,0050
0050,0049
0048,0047
0048,0050
0049,0046
0048,0049
0044,0048
0049,0055
0050,0049
0056,0050
0051,0050
0052,0051
0050,0050
0052,0055
0051,0049
0049,0053
0050,0050
0050,0052
0050,0053
0052,0052
0056,0053
0051,0055
0054,0052
0052,0054
0052,0052
0052,0053
0052,0053
0052,0051
0051,0051
0052,0057
0052,0054
0059,0053
0055,0052
0052,0056
0051,0050
0053,0053
0048,0052
0054,0052
0053,0053
0055,0054
0061,0053
0054,0056
0053,0055
0054,0054
0055,0048
0055,0056
0055,0055
0055,0056
0055,0056
0057,0062
0056,0057
0056,0056
0057,0057
0053,0058
0056,0057
0054,0056
0059,0057
0057,0058
0061,0056
0058,0058
0056,0058
0059,0058
0058,0056
0057,0057
0057,0058
0058,0058
0055,0057
0058,0057
0059,0059
0057,0058
0059,0060
0059,0060
0060,0059
0061,0063
0062,0063
0063,0063
0060,0060
0064,0061
0063,0062
0064,0062
0063,0068
0063,0062
0065,0064
0061,0063
0063,0064
0066,0064
0076,0067
0066,0066
0067,0066
0067,0067
0068,0068
0068,0066
0067,0067
0068,0067
0070,0068
0070,0067
0078,0069
0069,0069
0068,0067
0074,0070
0071,0070
0073,0074
0071,0073
0072,0072
0073,0071
0073,0071
0067,0072
0072,0071
0070,0070
0073,0072
0073,0071
0069,0068
0071,0072
0071,0072
0077,0066
0071,0071
0063,0069
0070,0070
0069,0069
0070,0069
0073,0065
0071,0071
0068,0068
0071,0071
0071,0070
0070,0072
0073,0070
0072,0072
0070,0070
0071,0071
0077,0070
0070,0071
0070,0072
0070,0072
0069,0070
0072,0069
0065,0069
0070,0069
0062,0070
0069,0068
0071,0068
0070,0071
0071,0070
0069,0072
0070,0072
0072,0072
0072,0072
0071,0071
0071,0071
0072,0071
0074,0071
0073,0072
0074,0077
0071,0074
0072,0073
0075,0073
0076,0075
0077,0078
0079,0078
0081,0080
0084,0077
0082,0080
0082,0081
0080,0080
0086,0082
0082,0082
0083,0081
0082,0083
0082,0084
0083,0081
0084,0082
0083,0082
0082,0083
0085,0083
0081,0083
0082,0081
0081,0081
0081,0081
0080,0080
0079,0080
0074,0081
0080,0081
0081,0083
0081,0083
0082,0083
0082,0083
0074,0083
0083,0082
0082,0082
0081,0083
0083,0083
0082,0083
0082,0091
0083,0081
0072,0083
0081,0081
0082,0080
0082,0082
0083,0082
0084,0084
0080,0081
0081,0080
0083,0080
0083,0081
0083,0083
0086,0083
0084,0083
0085,0084
0084,0081
0084,0084
0085,0082
0083,0083
0085,0084
0086,0085
0089,0086
0086,0086
0075,0087
0088,0086
0088,0088
0086,0085
0086,0085
0088,0088
0088,0086
0087,0085
0085,0086
0087,0087
0089,0085
0085,0087
0085,0090
0090,0090
0091,0097
0088,0089
0092,0093
0091,0090
0091,0093
0091,0091
0092,0092
0092,0093
0092,0093
0091,0090
0093,0088
0092,0091
0090,0090
0091,0091
0087,0089
0087,0087
0090,0090
0089,0088
0091,0092
0091,0091
0088,0096
0088,0088
0089,0089
0088,0087
0088,0087
0085,0088
0089,0084
0089,0088
0090,0088
0090,0090
0088,0090
0091,0091
0091,0092
0093,0091
0091,0094
0091,0092
0091,0093
0094,0091
0093,0094
0093,0094
0094,0091
0091,0088
0093,0091
0090,0090
0092,0090
0092,0091
0089,0087
0091,0091
0090,0088
0090,0089
0088,0087
0088,0085
0080,0088
0088,0087
0088,0088
0086,0089
0088,0085
0087,0089
0086,0082
0086,0088
0087,0086
0087,0087
0087,0086
0088,0087
0087,0085
0086,0085
0088,0087
0088,0089
0089,0090
0088,0087
0088,0087
0092,0089
0089,0088
0087,0088
0080,0088
0088,0086
0087,0087
0088,0088
0088,0086
0088,0089
0088,0087
0089,0089
0087,0089
0090,0090
0089,0090
0086,0089
0089,0089
0089,0090
0088,0089
0089,0087
0087,0088
0087,0088
0086,0085
0087,0085
0086,0086
0088,0084
0086,0087
0087,0085
0086,0084
0084,0085
0086,0087
0085,0085
0085,0085
0085,0085
0085,0084
0085,0086
0083,0085
0085,0086
0084,0081
0085,0084
0085,0084
0083,0084
0084,0075
0084,0083
0081,0082
0084,0082
0090,0082
0081,0083
0081,0083
0083,0084
0082,0085
0086,0087
0084,0084
0085,0084
0084,0084
0085,0084
0084,0082
0085,0083
0084,0083
0083,0083
0082,0083
0082,0083
0081,0081
0081,0080
0082,0083
0082,0081
0081,0080
0080,0081
0081,0083
0084,0081
0081,0082
0083,0082
0082,0084
0082,0082
0082,0081
0082,0080
0080,0080
0081,0081
0080,0080
0082,0081
0085,0084
0084,0083
0084,0085
0086,0086
0086,0088
0088,0087
0089,0087
0087,0089
0086,0085
0087,0088
0089,0085
0086,0085
0085,0089
0086,0086
0087,0089
0082,0093
0084,0085
0085,0085
0084,0085
0082,0084
0084,0082
0083,0083
0085,0087
0083,0084
0083,0083
0083,0083
0081,0082
0084,0083
0083,0083
0082,0083
0083,0084
0083,0082
0083,0083
0085,0085
0087,0087
0088,0088
0089,0088
0089,0089
0091,0090
0092,0090
0092,0091
0089,0088
0089,0089
0090,0088
0086,0088
0088,0089
0088,0088
0086,0087
0088,0086
0086,0085
0084,0085
0086,0086
0085,0087
0086,0085
0086,0086
0084,0084
0085,0085
0086,0084
0084,0086
0085,0086
0085,0085
0084,0085
0086,0085
0085,0085
0084,0082
0083,0083
0083,0082
0083,0082
0084,0085
0086,0086
0086,0083
0084,0083
0082,0083
0080,0082
0083,0081
0084,0082
0082,0081
0083,0082
0083,0081
0080,0083
0080,0082
0079,0081
0080,0079
0080,0078
0081,0079
0079,0081
0079,0079
0078,0079
0078,0075
0080,0078
0078,0077
0077,0077
0076,0079
0077,0077
0076,0076
0076,0069
0075,0076
0076,0076
0079,0079
0079,0079
0079,0078
0082,0080
0081,0079
0079,0078
0080,0078
0080,0081
0082,0082
0081,0080
0079,0081
0081,0081
0079,0085
0076,0080
0080,0081
0080,0079
0080,0079
0080,0077
0079,0078
0079,0079
0078,0079
0077,0078
0078,0077
0078,0077
0078,0079
0077,0080
0078,0078
0078,0076
0075,0077
0079,0067
0078,0078
0078,0078
0080,0078
0078,0079
0079,0078
0078,0077
0078,0076
0078,0078
0078,0077
0077,0075
0077,0077
0076,0075
0075,0075
0075,0075
0075,0075
0075,0074
0078,0075
0075,0075
0077,0074
0076,0077
0076,0077
0078,0077
0077,0076
0077,0077
0077,0078
0077,0075
0078,0075
0077,0074
0078,0080
0078,0079
0080,0079
0076,0079
0077,0076
0079,0078
0077,0077
0077,0078
0076,0075
0074,0074
0076,0075
0074,0076
0077,0077
0075,0076
0073,0073
0076,0075
0073,0075
0075,0075
0075,0075
0075,0073
0074,0072
0073,0073
0074,0070
0073,0073
0073,0073
0071,0073
0073,0071
0074,0071
0071,0072
0072,0073
0072,0073
0071,0072
0072,0071
0071,0071
0072,0071
0070,0072
0068,0071
0070,0069
0071,0070
0071,0071
0072,0070
0071,0070
0072,0072
0070,0071
0071,0072
0069,0070
0071,0070
0072,0071
0070,0070
0069,0068
0068,0069
0070,0067
0068,0068
0069,0070
0069,0071
0070,0069
0070,0069
0071,0071
0071,0071
0073,0072
0070,0069
0071,0071
0073,0074
0072,0072
0071,0072
0071,0072
0070,0068
0070,0072
0064,0069
0070,0069
0072,0071
0071,0072
0071,0071
0071,0071
0072,0071
0070,0070
0071,0072
0070,0070
0069,0071
0070,0070
0072,0069
0070,0070
0070,0070
0071,0069
0068,0067
0069,0067
0070,0070
0070,0069
0070,0068
0069,0069
0070,0070
0072,0068
0068,0067
0068,0067
0071,0068
0069,0067
0069,0068
0069,0068
0068,0069
0067,0065
0068,0067
0068,0068
0067,0067
0067,0068
0066,0065
0066,0067
0068,0068
0068,0068
0068,0066
0066,0068
0068,0068
0067,0068
0066,0065
0067,0069
0070,0070
0069,0068
0066,0069
0067,0067
0068,0068
0068,0069
0069,0067
0068,0068
0068,0067
0068,0067
0068,0068
0068,0068
0069,0068
0072,0068
0068,0067
0068,0068
0068,0068
0068,0068
0074,0066
0068,0067
0067,0066
0067,0068
0065,0067
0067,0067
0067,0067
0065,0067
0065,0066
0064,0067
0066,0066
0068,0066
0065,0065
0066,0066
0066,0066
0068,0066
0058,0066
0065,0062
0067,0068
0068,0067
0067,0067
0065,0066
0067,0068
0068,0067
0067,0066
0068,0067
0067,0068
0068,0068
0067,0066
0068,0067
0068,0067
0068,0068
0076,0065
0070,0068
0069,0067
0069,0070
0069,0069
0069,0069
0070,0069
0078,0069
0069,0069
0069,0069
0070,0068
0069,0069
0066,0068
0065,0067
0069,0068
0067,0067
0067,0068
0061,0067
0068,0068
0066,0066
0067,0067
0069,0066
0067,0065
0069,0067
0066,0067
0063,0063
0067,0066
0067,0066
0066,0067
0065,0066
0065,0065
0065,0066
0065,0064
0056,0065
0064,0064
0066,0066
0066,0066
0063,0063
0064,0064
0066,0063
0062,0064
0064,0064
0064,0064
0067,0065
0063,0066
0063,0066
0064,0063
0064,0063
0064,0065
0066,0064
0063,0063
0064,0063
0065,0065
0067,0064
0066,0065
0064,0063
0066,0065
0065,0064
0064,0063
0057,0065
0065,0064
0061,0063
0064,0064
0060,0058
0066,0055
0065,0058
0065,0065
0067,0067
0066,0066
0067,0067
0064,0068
0066,0067
0067,0065
0066,0066
0065,0064
0066,0064
0067,0066
0067,0064
0065,0064
0065,0064
0064,0062
0068,0064
0064,0064
0067,0063
0065,0065
0064,0064
0063,0062
0059,0064
0063,0063
0052,0065
0063,0064
0063,0063
0062,0062
0063,0063
0063,0062
0063,0063
0063,0062
0061,0061
0061,0061
0062,0067
0063,0064
0061,0062
0061,0059
0063,0061
0061,0061
0066,0061
0061,0060
0063,0061
0061,0060
0071,0062
0060,0061
0060,0060
0060,0058
0048,0061
0060,0060
0057,0060
0060,0061
0061,0060
0063,0062
0065,0062
0062,0063
0052,0061
0061,0059
0060,0062
0061,0061
0050,0061
0061,0060
0061,0062
0059,0061
0058,0068
0061,0063
0062,0063
0063,0062
0057,0062
0063,0063
0063,0064
0064,0061
0060,0070
0064,0064
0062,0063
0064,0063
0062,0064
0064,0063
0063,0063
0063,0061
0061,0061
0063,0062
0063,0062
0062,0062
0062,0062
0061,0062
0063,0061
0061,0058
0060,0061
0062,0061
0052,0059
0059,0060
0061,0062
0061,0061
0062,0060
0061,0061
0056,0060
0061,0059
0061,0059
0061,0060
0061,0062
0060,0061
0059,0058
0060,0060
0058,0059
0057,0060
0059,0058
0059,0060
0056,0057
0059,0059
0059,0058
0058,0056
0059,0057
0059,0057
0047,0057
0055,0057
0058,0058
0058,0056
0056,0058
0057,0057
0062,0057
0057,0059
0057,0048
0057,0056
0045,0056
0056,0057
0056,0056
0057,0058
0057,0057
0059,0058
0059,0055
0059,0057
0064,0057
0057,0057
0057,0055
0056,0056
0055,0056
0054,0055
0055,0054
0055,0055
0055,0052
0052,0055
0054,0053
0054,0055
0055,0054
0053,0055
0053,0053
0054,0054
0056,0054
0053,0055
0054,0055
0053,0052
0055,0053
0056,0056
0053,0054
0055,0054
0053,0053
0065,0053
0054,0053
0054,0055
0055,0054
0055,0055
0055,0052
0055,0057
0055,0053
0058,0056
0055,0054
0055,0055
0053,0055
0060,0053
0054,0053
0054,0054
0054,0054
0052,0054
0054,0054
0055,0055
0051,0053
0054,0054
0053,0054
0053,0054
0056,0057
0054,0054
0054,0055
0053,0054
0053,0059
0054,0054
0055,0055
0055,0055
0055,0053
0057,0053
0052,0052
0054,0053
0057,0055
0054,0055
0052,0054
0055,0054
0053,0053
0054,0053
0053,0058
0057,0052
0051,0056
0051,0052
0051,0052
0053,0053
0052,0053
0052,0054
0054,0053
0054,0053
0053,0052
0057,0054
0054,0055
0054,0054
0054,0054
0054,0054
0055,0054
0056,0055
0056,0054
0046,0054
0055,0055
0056,0057
0056,0056
0058,0057
0055,0056
0056,0056
0054,0056
0055,0054
0057,0055
0057,0055
0054,0054
0054,0056
0052,0056
0055,0052
0055,0056
0055,0056
0053,0051
0055,0057
0055,0055
0058,0054
0055,0055
0054,0053
0053,0055
0059,0055
0054,0054
0055,0057
0055,0056
0063,0055
0055,0056
0056,0056
0058,0057
0057,0056
0058,0058
0058,0059
0057,0055
0056,0057
0057,0057
0058,0057
0056,0057
0057,0057
0056,0056
0056,0055
0055,0056
0055,0055
0055,0055
0057,0055
0056,0055
0056,0050
0053,0056
0050,0055
0056,0055
0052,0063
0056,0056
0055,0053
0055,0054
0055,0055
0055,0055
0056,0055
0056,0055
0057,0055
0055,0055
0054,0057
0055,0057
0050,0054
0058,0055
0058,0059
0058,0057
0058,0058
0056,0054
0056,0056
0057,0056
0056,0054
0055,0058
0053,0057
0059,0056
0056,0057
0057,0059
0059,0057
0059,0058
0060,0061
0059,0059
0060,0059
0059,0059
0060,0060
0061,0059
0061,0058
0058,0059
0063,0058
0061,0059
0059,0059
0058,0060
0059,0060
0059,0058
0047,0058
0058,0051
0057,0057
0059,0057
0061,0061
0056,0057
0059,0058
0058,0057
0059,0058
0056,0058
0054,0064
0058,0058
0051,0058
0059,0058
0056,0056
0059,0057
0059,0057
0057,0057
0058,0057
0058,0057
0048,0056
0056,0058
0057,0057
0056,0056
0056,0057
0056,0058
0055,0055
0057,0055
0060,0056
0057,0057
0055,0057
0055,0057
0055,0050
0056,0056
0055,0056
0056,0054
0058,0054
0056,0055
0055,0056
0055,0055
0056,0054
0054,0055
0053,0055
0056,0053
0054,0053
0056,0053
0053,0054
0053,0053
0053,0054
0054,0053
0052,0054
0054,0054
0052,0053
0054,0056
0054,0056
0054,0053
0054,0057
0054,0054
0054,0053
0054,0052
0053,0052
0054,0055
0053,0054
0052,0054
0054,0055
0054,0054
0053,0054
0054,0055
0055,0051
0053,0054
0054,0051
0054,0055
0052,0052
0052,0053
0051,0054
0053,0053
0056,0053
0054,0053
0054,0054
0053,0052
0052,0052
0050,0051
0053,0052
0053,0053
0052,0053
0050,0052
0052,0052
0049,0052
0053,0053
0054,0053
0053,0051
0053,0051
0054,0057
0052,0051
0052,0052
0052,0052
0053,0052
0050,0051
0054,0054
0055,0052
0053,0054
0055,0053
0055,0054
0054,0054
0053,0054
0052,0053
0052,0052
0053,0051
0053,0052
0053,0052
0053,0053
0051,0051
0051,0052
0052,0054
0052,0052
0052,0052
0052,0042
0052,0051
0051,0044
0053,0052
0051,0052
0051,0051
0050,0050
0051,0051
0053,0052
0053,0051
0052,0053
0050,0052
0053,0052
0054,0052
0052,0051
0053,0051
0054,0051
0054,0053
0052,0052
0057,0053
0052,0053
0054,0051
0054,0053
0054,0053
0053,0055
0052,0053
0053,0052
0055,0048
0060,0049
0054,0052
0053,0052
0052,0055
0051,0054
0054,0054
0055,0054
0053,0055
0053,0053
0054,0054
0052,0054
0053,0052
0053,0052
0052,0054
0052,0052
0054,0053
0054,0053
0053,0053
0052,0052
0053,0052
0052,0046
0051,0052
0053,0052
0051,0052
0052,0052
0053,0051
0051,0052
0051,0053
0052,0051
0051,0052
0050,0050
0053,0052
0051,0051
0052,0053
0050,0051
0051,0051
0049,0050
0051,0050
0050,0050
0051,0050
0050,0049
0051,0050
0048,0051
0051,0049
0051,0049
0050,0049
0051,0049
0051,0050
0050,0050
0048,0051
0049,0051
0049,0051
0050,0049
0049,0049
0050,0048
0053,0051
0050,0051
0050,0050
0049,0050
0048,0049
0050,0050
0049,0047
0049,0049
0044,0049
0052,0048
0049,0048
0049,0047
0048,0047
0049,0046
0049,0048
0049,0047
0051,0043
0046,0047
0047,0047
0046,0047
0048,0048
0045,0048
0047,0047
0047,0048
0049,0048
0050,0049
0051,0049
0049,0052
0049,0048
0051,0049
0051,0051
0050,0049
0050,0048
0051,0050
0051,0050
0052,0050
0052,0051
0050,0051
0048,0051
0050,0048
0049,0050
0048,0051
0050,0049
0050,0049
0050,0049
0052,0049
0052,0050
0050,0050
0051,0052
0053,0051
0050,0051
0051,0049
0050,0051
0049,0049
0049,0050
0051,0049
0049,0050
0050,0049
0051,0050
0051,0050
0051,0051
0051,0050
0050,0050
0051,0050
0049,0050
0048,0050
0051,0050
0052,0052
0050,0051
0053,0053
0050,0050
0051,0049
0051,0051
0051,0050
0054,0051
0053,0050
0050,0052
0051,0052
0052,0051
0050,0052
0051,0051
0054,0052
0050,0050
0051,0052
0051,0049
0050,0049
0049,0051
0050,0049
0048,0049
0051,0050
0051,0051
0048,0051
0048,0050
0049,0050
0049,0050
0050,0049
0049,0050
0050,0050
0052,0050
0050,0051
0051,0051
0051,0051
0053,0051
0051,0050
0049,0051
0051,0052
0050,0052
0051,0049
0052,0052
0052,0052
0054,0052
0050,0051
0054,0058
0049,0052
0052,0052
0053,0052
0052,0053
0053,0051
0052,0051
0051,0050
0053,0052
0052,0051
0052,0051
0050,0051
0051,0051
0050,0050
0050,0051
0051,0052
0052,0052
0051,0050
0052,0051
0051,0050
0049,0046
0051,0050
0052,0051
0051,0050
0050,0050
0049,0050
0050,0049
0051,0051
0050,0052
0051,0050
0050,0050
0049,0051
0052,0051
0051,0049
0051,0052
0050,0052
0052,0050
0052,0051
0052,0051
0052,0050
0051,0050
0051,0050
0050,0050
0052,0049
0049,0049
0048,0051
0049,0049
0049,0050
0049,0046
0050,0047
0049,0049
0050,0050
0050,0050
0052,0051
0052,0049
0050,0051
0050,0051
0049,0049
0051,0050
0052,0051
0049,0050
0049,0049
0051,0049
0050,0048
0050,0050
0049,0051
0052,0048
0049,0049
0049,0048
0049,0049
0049,0049
0047,0049
0049,0049
0048,0049
0048,0049
0046,0047
0048,0047
0049,0048
0048,0048
0049,0049
0049,0052
0050,0048
0049,0048
0050,0049
0049,0048
0050,0048
0049,0049
0049,0049
0047,0048
0049,0048
0049,0048
0048,0047
0049,0048
0047,0047
0049,0045
0050,0046
0047,0048
0041,0047
0048,0048
0048,0048
0048,0046
0048,0048
0047,0047
0048,0048
0047,0045
0047,0048
0048,0048
0048,0049
0049,0048
0048,0048
0049,0048
0049,0050
0049,0048
0050,0049
0052,0049
0051,0050
0051,0050
0049,0050
0051,0051
0049,0049
0049,0049
0049,0050
0048,0050
0050,0050
0051,0051
0054,0051
0054,0051
0049,0051
0051,0052
0054,0050
0051,0051
0046,0051
0049,0051
0051,0052
0051,0051
0052,0051
0052,0053
0054,0051
0053,0053
0053,0054
0053,0050
0054,0053
0053,0052
0054,0053
0054,0054
0052,0052
0053,0052
0052,0052
0054,0053
0054,0054
0053,0054
0053,0053
0053,0054
0054,0054
0054,0055
0055,0054
0052,0053
0053,0054
0055,0054
0053,0050
0053,0053
0055,0054
0054,0053
0054,0053
0054,0061
0053,0051
0053,0052
0052,0051
0053,0053
0053,0053
0053,0054
0054,0053
0052,0054
0055,0053
0053,0052
0053,0054
0055,0054
0054,0055
0053,0057
0054,0055
0055,0053
0054,0054
0055,0055
0054,0056
0055,0053
0053,0054
0054,0052
0054,0054
0053,0052
0052,0053
0054,0052
0054,0053
0053,0053
0051,0056
0054,0052
0050,0052
0056,0054
0054,0053
0056,0051
0053,0054
0051,0050
0051,0051
0054,0052
0052,0051
0052,0051
0052,0052
0050,0051
0051,0053
0051,0051
0051,0050
0050,0051
0054,0052
0053,0052
0052,0051
0049,0052
0052,0052
0052,0050
0051,0051
0051,0051
0050,0051
0051,0052
0051,0052
0051,0052
0051,0051
0050,0050
0052,0051
0053,0051
0052,0053
0052,0051
0052,0052
0052,0051
0052,0051
0045,0051
0051,0051
0056,0051
0051,0051
0051,0052
0050,0051
0051,0050
0051,0050
0050,0050
0050,0049
0048,0050
0051,0050
0050,0051
0048,0050
0050,0050
0047,0049
0050,0050
0049,0051
0046,0050
0052,0050
0051,0046
0051,0051
0043,0051
0051,0050
0050,0050
0050,0047
0046,0052
0053,0051
0060,0052
0052,0051
0047,0053
0053,0052
0053,0051
0053,0053
0052,0053
0053,0053
0051,0052
0052,0052
0052,0052
0052,0052
0052,0052
0053,0051
0052,0052
0053,0053
0053,0051
0050,0052
0055,0052
0053,0052
0053,0051
0052,0053
0054,0051
0052,0052
0053,0051
0052,0052
0051,0052
0052,0051
0051,0052
0052,0053
0049,0050
0049,0051
0051,0050
0051,0050
0051,0051
0052,0050
0051,0049
0049,0049
0050,0054
0050,0049
0044,0050
0051,0051
0050,0050
0048,0050
0051,0050
0051,0050
0050,0050
0050,0050
0047,0049
0049,0047
0051,0044
0048,0049
0050,0050
0049,0049
0048,0048
0048,0048
0052,0048
0050,0049
0049,0050
0050,0050
0049,0048
0051,0050
0056,0044
0050,0049
0050,0050
0049,0048
0048,0047
0048,0049
0056,0048
0049,0049
0046,0045
0049,0048
0049,0047
0047,0047
0039,0047
0047,0047
0047,0046
0048,0047
0043,0047
0047,0047
0047,0053
0048,0047
0047,0047
0046,0047
0044,0045
0048,0047
0047,0046
0047,0048
0047,0049
0047,0046
0046,0045
0048,0047
0047,0047
0047,0047
0048,0049
0049,0048
0049,0042
0048,0047
0050,0045
0050,0048
0048,0049
0052,0049
0047,0049
0049,0049
0048,0049
0049,0050
0050,0044
0049,0047
0049,0048
0049,0048
0048,0048
0048,0050
0051,0048
0048,0047
0047,0049
0049,0047
0048,0054
0048,0046
0049,0048
0049,0050
0040,0048
0049,0049
0050,0048
0048,0050
0046,0048
0048,0047
0047,0048
0047,0046
0048,0047
0048,0051
0047,0048
0049,0048
0046,0050
0045,0047
0041,0039
0047,0047
0047,0049
0049,0049
0049,0049
0050,0049
0050,0049
0048,0051
0049,0049
0049,0048
0049,0047
0049,0048
0047,0047
0049,0048
0045,0054
0048,0048
0049,0049
0051,0051
0049,0048
0048,0049
0048,0048
0049,0048
0049,0048
0047,0047
0047,0049
0047,0048
0048,0046
0048,0048
0055,0048
0047,0047
0048,0049
0048,0047
0045,0049
0047,0047
0048,0045
0049,0045
0046,0045
0049,0047
0048,0047
0047,0046
0047,0049
0047,0047
0050,0045
0047,0047
0048,0052
0049,0048
0048,0048
0048,0048
0047,0055
0047,0048
0048,0041
0049,0048
0049,0050
0051,0048
0044,0047
0046,0047
0047,0047
0048,0047
0047,0047
0059,0047
0047,0052
0045,0047
0046,0044
0049,0046
0046,0045
0047,0047
0045,0048
0046,0046
0047,0047
0047,0046
0046,0045
0047,0045
0048,0046
0049,0046
0048,0048
0047,0047
0046,0050
0048,0048
0047,0049
0043,0048
0049,0047
0045,0049
0049,0047
0052,0048
0047,0051
0049,0049
0050,0049
0049,0049
0048,0047
0037,0048
0049,0048
0048,0048
0048,0048
0048,0049
0049,0050
0050,0049
0048,0050
0049,0048
0046,0047
0047,0048
0051,0050
0049,0049
0049,0049
0048,0049
0048,0048
0048,0043
0050,0045
0048,0049
0049,0050
0048,0047
0048,0047
0049,0048
0049,0047
0058,0049
0049,0049
0048,0046
0047,0047
0049,0050
0048,0048
0044,0048
0048,0048
0046,0046
0047,0048
0046,0046
0049,0046
0036,0048
0049,0047
0041,0049
0049,0050
0048,0049
0049,0048
0049,0048
0048,0048
0046,0049
0048,0047
0048,0047
0047,0045
0049,0048
0048,0046
0047,0047
0050,0048
0053,0046
0048,0047
0046,0044
0048,0047
0048,0056
0048,0048
0048,0046
0049,0047
0048,0048
0046,0046
0047,0048
0047,0047
0044,0050
0048,0047
0048,0045
0048,0044
0045,0048
0046,0046
0047,0047
0048,0045
0047,0047
0046,0046
0047,0048
0046,0047
0045,0048
0047,0047
0045,0046
0047,0044
0048,0046
0047,0047
0044,0046
0045,0046
0045,0045
0046,0046
0046,0044
0045,0046
0046,0045
0046,0043
0043,0044
0045,0045
0045,0044
0044,0046
0044,0045
0046,0045
0045,0046
0047,0046
0046,0047
0047,0047
0046,0048
0047,0048
0047,0047
0048,0046
0048,0046
0046,0046
0050,0047
0045,0047
0048,0046
0047,0047
0047,0046
0048,0047
0046,0046
0047,0046
0041,0042
0048,0049
0046,0046
0046,0046
0046,0047
0044,0046
0046,0046
0047,0047
0049,0046
0048,0047
0047,0047
0046,0047
0046,0046
0046,0047
0047,0047
0046,0045
0052,0046
0046,0046
0047,0045
0047,0047
0044,0047
0048,0047
0046,0048
0047,0047
0047,0047
0048,0047
0045,0047
0047,0045
0048,0048
0047,0048
0048,0046
0045,0047
0046,0048
0047,0045
0043,0047
0049,0048
0049,0046
0047,0046
0048,0050
0049,0047
0047,0047
0049,0048
0046,0055
0049,0049
0051,0050
0048,0048
0048,0049
0047,0049
0049,0049
0048,0049
0048,0046
0048,0048
0046,0044
0046,0046
0048,0044
0048,0047
0045,0047
0047,0047
0047,0046
0047,0047
0048,0047
0048,0047
0047,0050
0047,0045
0047,0047
0046,0048
0048,0050
0047,0047
0044,0046
0049,0048
0047,0041
0048,0045
0048,0043
0046,0045
0045,0047
0044,0046
0045,0045
0047,0045
0044,0046
0045,0047
0034,0045
0046,0045
0044,0051
0045,0045
0044,0050
0046,0045
0045,0044
0044,0044
0045,0037
0045,0045
0052,0045
0044,0046
0046,0043
0046,0045
0047,0043
0046,0045
0044,0044
0046,0044
0045,0044
0045,0046
0045,0043
0040,0045
0044,0044
0045,0045
0044,0040
0042,0045
0044,0045
0044,0045
0044,0044
0044,0043
0043,0042
0042,0043
0044,0046
0043,0043
0044,0041
0040,0043
0043,0047
0044,0044
0044,0045
0044,0044
0044,0044
0043,0043
0043,0044
0045,0044
0043,0044
0042,0042
0042,0043
0042,0044
0043,0044
0042,0041
0045,0043
0044,0044
0044,0045
0046,0046
0047,0047
0046,0046
0046,0045
0046,0046
0046,0046
0043,0046
0046,0046
0045,0046
0046,0047
0044,0045
0045,0046
0046,0044
0044,0045
0042,0045
0045,0045
0044,0046
0044,0046
0045,0046
0047,0045
0045,0045
0044,0045
0046,0046
0045,0044
0045,0044
0044,0047
0044,0044
0043,0045
0044,0044
0046,0045
0047,0044
0045,0043
0046,0046
0045,0046
0046,0043
0045,0045
0045,0046
0045,0045
0042,0053
0045,0044
0047,0046
0045,0046
0046,0046
0045,0046
0047,0047
0047,0045
0042,0045
0042,0039
0046,0045
0046,0046
0046,0046
0044,0044
0045,0046
0045,0045
0045,0044
0046,0043
0046,0047
0044,0046
0045,0045
0046,0044
0046,0044
0046,0046
0045,0045
0044,0044
0042,0042
0044,0043
0045,0043
0046,0046
0046,0046
0047,0048
0047,0047
0047,0047
0049,0047
0046,0048
0046,0045
0048,0046
0047,0047
0047,0047
0047,0048
0047,0047
0046,0046
0043,0047
0048,0048
0046,0047
0047,0048
0047,0047
0043,0054
0046,0046
0047,0046
0047,0047
0046,0047
0045,0047
0046,0044
0047,0047
0046,0045
0046,0045
0045,0045
0045,0046
0047,0048
0046,0046
0046,0046
0047,0046
0048,0048
0046,0047
0047,0045
0047,0046
0048,0046
0048,0047
0045,0046
0044,0045
0047,0045
0047,0045
0047,0044
0045,0046
0045,0046
0044,0042
0045,0045
0045,0046
0045,0048
0046,0045
0045,0046
0045,0047
0047,0047
0039,0046
0048,0046
0047,0045
0046,0046
0045,0047
0047,0048
0045,0044
0046,0045
0045,0047
0047,0045
0048,0047
0044,0046
0046,0046
0040,0046
0046,0047
0046,0046
0046,0046
0046,0046
0046,0045
0044,0047
0047,0047
0046,0046
0048,0041
0049,0048
0050,0048
0043,0047
0048,0048
0048,0036
0044,0047
0045,0045
0047,0046
0045,0047
0045,0046
0046,0044
0046,0045
0046,0047
0044,0044
0046,0046
0046,0045
0044,0046
0046,0045
0046,0045
0047,0047
0046,0050
0045,0046
0043,0043
0048,0043
0048,0046
0046,0048
0047,0047
0046,0047
0046,0044
0046,0046
0044,0046
0047,0045
0046,0044
0045,0045
0046,0044
0045,0045
0046,0043
0044,0045
0044,0044
0045,0044
0044,0045
0045,0044
0044,0045
0043,0045
0045,0044
0044,0044
0045,0044
0044,0043
0044,0041
0041,0045
0043,0044
0041,0041
0044,0040
0044,0043
0042,0042
0042,0043
0043,0041
0044,0044
0046,0043
0043,0043
0041,0042
0040,0040
0043,0042
0041,0039
0043,0043
0044,0043
0044,0044
0044,0043
0042,0043
0043,0041
0044,0043
0043,0043
0041,0042
0043,0042
0044,0042
0043,0041
0044,0044
0044,0043
0043,0042
0043,0042
0045,0043
0043,0041
0043,0044
0042,0043
0041,0041
0044,0042
0044,0042
0042,0044
0043,0044
0039,0043
0041,0043
0044,0044
0044,0042
0042,0042
0042,0040
0042,0040
0040,0040
0043,0042
0043,0042
0041,0043
0042,0040
0041,0041
0042,0042
0043,0043
0042,0041
0043,0042
0042,0044
0042,0039
0043,0042
0041,0042
0043,0043
0041,0039
0045,0043
0042,0043
0042,0042
0043,0042
0041,0042
0041,0042
0041,0041
0041,0041
0043,0040
0041,0042
0041,0041
0040,0040
0041,0042
0043,0042
0042,0043
0042,0042
0041,0041
0041,0041
0041,0040
0041,0041
0040,0040
0041,0043
0040,0042
0034,0041
0040,0041
0042,0044
0042,0041
0042,0042
0041,0041
0041,0041
0042,0041
0039,0040
0041,0042
0041,0042
0041,0041
0044,0037
0038,0040
0040,0040
0040,0039
0041,0040
0043,0044
0041,0038
0040,0041
0037,0039
0040,0040
0039,0039
0039,0039
0038,0040
0037,0040
0040,0040
0039,0039
0042,0041
0039,0040
0038,0039
0040,0039
0040,0039
0040,0039
0041,0038
0040,0039
0041,0041
0041,0040
0041,0041
0041,0040
0043,0040
0041,0040
0041,0041
0040,0040
0039,0040
0039,0040
0041,0041
0039,0042
0040,0041
0040,0041
0040,0039
0040,0041
0034,0042
0044,0040
0040,0039
0040,0040
0041,0041
0040,0040
0040,0040
0041,0041
0040,0040
0042,0041
0040,0042
0041,0041
0040,0042
0040,0041
0042,0040
0041,0042
0042,0041
0039,0040
0041,0041
0051,0041
0044,0043
0042,0042
0042,0041
0043,0040
0043,0043
0042,0039
0042,0042
0043,0041
0043,0039
0040,0040
0042,0040
0042,0041
0042,0042
0041,0041
0042,0039
0044,0039
0038,0040
0041,0040
0041,0039
0042,0041
0040,0041
0042,0042
0041,0041
0041,0041
0042,0041
0043,0042
0042,0042
0040,0041
0040,0042
0045,0042
0044,0045
0037,0041
0042,0043
0043,0040
0041,0041
0042,0041
0042,0042
0040,0041
0042,0040
0044,0042
0041,0041
0042,0043
0043,0043
0041,0042
0040,0037
0044,0039
0042,0041
0041,0042
0044,0044
0043,0043
0043,0043
0054,0043
0042,0044
0042,0042
0042,0045
0044,0043
0044,0043
0046,0044
0044,0044
0043,0042
0041,0044
0043,0041
0044,0041
0042,0044
0042,0041
0044,0042
0045,0042
0044,0041
0041,0042
0041,0041
0042,0040
0038,0042
0040,0041
0041,0042
0043,0040
0037,0041
0041,0041
0041,0042
0042,0041
0037,0041
0043,0041
0041,0041
0041,0043
0041,0039
0041,0042
0039,0041
0042,0032
0035,0042
0043,0040
0041,0041
0039,0040
0044,0042
0040,0040
0042,0040
0039,0041
0040,0040
0040,0039
0042,0034
0042,0042
0042,0043
0042,0041
0043,0043
0043,0043
0042,0044
0042,0043
0045,0042
0043,0043
0042,0040
0043,0043
0042,0043
0043,0042
0043,0044
0044,0042
0040,0041
0043,0042
0042,0045
0041,0043
0043,0043
0041,0046
0043,0043
0042,0043
0043,0043
0040,0042
0044,0046
0043,0042
0041,0038
0041,0040
0045,0043
0043,0043
0046,0042
0042,0043
0044,0041
0041,0042
0042,0042
0043,0045
0049,0042
0042,0040
0041,0037
0044,0043
0039,0037
0040,0043
0042,0043
0043,0042
0043,0036
0043,0042
0042,0034
0041,0043
0035,0044
0042,0042
0042,0043
0043,0043
0041,0042
0043,0042
0042,0043
0042,0043
0041,0051
0042,0043
0040,0041
0042,0044
0041,0038
0043,0042
0042,0045
0043,0042
0045,0044
0042,0049
0045,0045
0044,0045
0047,0039
0042,0043
0045,0044
0042,0044
0040,0051
0041,0042
0043,0048
0043,0043
0044,0040
0043,0042
0042,0044
0042,0042
0044,0049
0042,0042
0043,0043
0042,0043
0043,0043
0040,0041
0043,0039
0044,0041
0040,0043
0041,0041
0044,0045
0042,0041
0046,0043
0042,0041
0043,0042
0040,0042
0042,0044
0042,0042
0043,0043
0042,0041
0042,0041
0042,0042
0046,0042
0037,0043
0042,0042
0042,0048
0042,0041
0043,0041
0042,0043
0043,0043
0032,0042
0041,0045
0043,0041
0042,0042
0040,0042
0041,0041
0041,0040
0041,0042
0043,0033
0043,0041
0036,0043
0042,0043
0043,0041
0040,0040
0041,0041
0041,0039
0043,0041
0043,0043
0034,0040
0041,0040
0043,0042
0043,0041
0044,0043
0044,0043
0041,0045
0043,0042
0043,0044
0043,0041
0043,0042
0041,0041
0041,0046
0044,0044
0042,0042
0041,0042
0043,0041
0042,0042
0040,0043
0041,0041
0038,0046
0041,0042
0041,0042
0040,0041
0043,0042
0040,0042
0041,0044
0042,0041
0040,0041
0042,0040
0041,0042
0041,0041
0042,0040
0034,0041
0041,0041
0043,0041
0042,0041
0041,0039
0041,0045
0043,0043
0043,0036
0043,0044
0043,0041
0044,0044
0043,0046
0039,0046
0043,0043
0044,0043
0043,0042
0043,0044
0045,0043
0045,0045
0044,0051
0043,0042
0044,0044
0044,0044
0042,0043
0043,0043
0044,0044
0040,0044
0043,0040
0044,0044
0044,0044
0042,0044
0045,0043
0044,0045
0046,0047
0045,0044
0046,0046
0047,0047
0047,0048
0048,0047
0047,0048
0051,0047
0049,0047
0048,0048
0048,0047
0047,0044
0047,0047
0049,0048
0049,0048
0050,0047
0049,0048
0049,0047
0048,0044
0047,0047
0047,0047
0047,0046
0048,0047
0048,0049
0049,0048
0050,0050
0048,0046
0046,0047
0048,0048
0050,0050
0049,0049
0049,0050
0047,0045
0048,0051
0049,0048
0048,0049
0048,0049
0046,0046
0048,0048
0048,0047
0047,0048
0053,0048
0048,0048
0049,0049
0049,0047
0056,0049
0046,0049
0048,0048
0047,0047
0048,0048
0047,0047
0050,0050
0050,0049
0049,0049
0048,0051
0043,0048
0049,0049
0045,0048
0047,0049
0048,0048
0048,0048
0048,0048
0047,0048
0047,0047
0048,0049
0047,0047
0047,0047
0037,0047
0049,0048
0050,0050
0047,0050
0049,0047
0047,0048
0049,0048
0046,0048
0048,0043
0046,0047
0044,0046
0046,0046
0048,0046
0048,0047
0048,0046
0048,0048
0049,0046
0046,0048
0046,0043
0047,0044
0045,0046
0046,0045
0046,0050
0046,0047
0045,0047
0046,0048
0040,0046
0046,0046
0045,0046
0045,0045
0047,0046
0046,0045
0044,0042
0047,0044
0045,0044
0047,0045
0047,0045
0046,0046
0048,0043
0048,0046
0053,0046
0045,0046
0046,0045
0045,0045
0047,0046
0046,0046
0047,0046
0046,0046
0047,0047
0047,0047
0050,0046
0046,0048
0049,0049
0046,0046
0047,0045
0049,0046
0056,0048
0048,0048
0056,0047
0046,0048
0046,0047
0047,0047
0048,0046
0049,0047
0047,0046
0047,0047
0049,0047
0047,0045
0048,0048
0048,0047
0045,0047
0046,0046
0046,0046
0047,0047
0052,0049
0047,0047
0045,0051
0047,0046
0048,0047
0046,0046
0045,0041
0047,0046
0046,0046
0046,0045
0046,0045
0046,0047
0045,0045
0044,0044
0044,0049
0045,0044
0043,0045
0043,0044
0044,0044
0045,0044
0046,0046
0045,0045
0045,0043
0045,0045
0044,0044
0045,0043
0044,0044
0045,0045
0044,0047
0043,0044
0044,0044
0045,0046
0043,0048
0044,0042
0045,0047
0044,0045
0044,0045
0044,0044
0044,0045
0045,0043
0043,0044
0043,0043
0044,0043
0044,0044
0042,0046
0045,0043
0040,0043
0041,0041
0040,0044
0044,0043
0045,0041
0044,0045
0042,0043
0042,0040
0044,0043
0044,0043
0044,0045
0044,0045
0044,0043
0043,0043
0043,0044
0043,0042
0043,0043
0043,0042
0042,0033
0043,0043
0042,0040
0043,0042
0041,0039
0040,0041
0041,0042
0042,0043
0042,0040
0042,0041
0042,0041
0039,0043
0042,0042
0041,0041
0040,0040
0042,0040
0042,0041
0042,0042
0042,0041
0040,0041
0041,0041
0041,0041
0039,0040
0041,0039
0041,0038
0040,0041
0041,0039
0041,0040
0040,0041
0040,0042
0041,0041
0041,0041
0041,0041
0040,0040
0038,0038
0040,0040
0041,0041
0039,0041
0040,0040
0040,0041
0043,0040
0041,0040
0040,0038
0040,0040
0041,0041
0041,0041
0041,0040
0042,0041
0040,0043
0041,0041
0040,0041
0034,0041
0042,0042
0043,0039
0040,0042
0040,0041
0040,0041
0041,0041
0042,0040
0042,0042
0043,0031
0042,0042
0043,0041
0043,0044
0042,0041
0041,0041
0041,0040
0042,0039
0041,0041
0042,0041
0042,0040
0041,0041
0041,0040
0040,0041
0041,0041
0041,0041
0041,0043
0041,0042
0041,0042
0042,0042
0036,0039
0042,0044
0041,0041
0041,0042
0041,0042
0041,0043
0041,0042
0043,0041
0043,0040
0042,0039
0041,0042
0042,0041
0042,0042
0042,0042
0043,0042
0044,0041
0044,0039
0044,0044
0039,0042
0037,0041
0044,0043
0042,0042
0042,0043
0042,0043
0042,0042
0041,0042
0043,0043
0043,0043
0043,0045
0044,0043
0042,0043
0043,0041
0043,0042
0043,0043
0045,0043
0043,0044
0045,0043
0044,0042
0043,0044
0042,0043
0043,0043
0044,0041
0043,0040
0043,0044
0042,0040
0042,0041
0043,0044
0042,0043
0043,0044
0043,0044
0042,0042
0041,0043
0044,0046
0045,0046
0043,0044
0044,0042
0040,0041
0045,0044
0042,0040
0044,0041
0042,0042
0039,0042
0042,0040
0042,0041
0042,0041
0041,0041
0041,0040
0043,0044
0041,0042
0038,0041
0041,0041
0041,0041
0041,0041
0041,0041
0041,0040
0041,0040
0040,0041
0040,0044
0040,0040
0040,0039
0039,0038
0040,0039
0041,0039
0042,0040
0036,0039
0039,0040
0040,0040
0040,0037
0041,0039
0040,0039
0039,0040
0039,0039
0040,0039
0039,0041
0039,0040
0041,0039
0040,0039
0040,0039
0040,0039
0041,0041
0041,0040
0040,0039
0039,0038
0040,0039
0041,0040
0040,0040
0039,0040
0040,0039
0038,0039
0039,0039
0041,0038
0038,0039
0038,0039
0038,0038
0038,0037
0038,0038
0049,0039
0038,0041
0040,0041
0023,0037
0039,0040
0038,0039
0039,0039
0037,0037
0038,0039
0038,0037
0039,0038
0036,0038
0039,0037
0039,0038
0038,0039
0039,0042
0039,0036
0035,0037
0038,0039
0037,0037
0038,0037
0037,0037
0036,0038
0045,0037
0036,0036
0037,0037
0037,0037
0036,0037
0038,0038
0038,0039
0038,0036
0038,0029
0038,0037
0039,0040
0038,0037
0037,0037
0037,0037
0037,0036
0037,0037
0035,0038
0039,0038
0040,0038
0038,0038
0037,0036
0039,0038
0035,0038
0037,0037
0036,0043
0037,0036
0039,0035
0040,0038
0037,0037
0038,0040
0038,0038
0037,0038
0034,0037
0039,0038
0038,0037
0038,0038
0037,0038
0037,0037
0035,0036
0038,0037
0038,0040
0037,0037
0039,0037
0037,0038
0038,0036
0040,0037
0035,0038
0037,0037
0033,0041
0037,0037
0044,0038
0038,0039
0038,0037
0039,0039
0039,0039
0039,0039
0040,0040
0040,0039
0032,0038
0036,0038
0038,0039
0038,0038
0038,0038
0039,0038
0042,0038
0041,0040
0049,0037
0038,0037
0040,0037
0038,0038
0039,0037
0038,0037
0038,0037
0036,0039
0040,0036
0038,0038
0036,0038
0036,0037
0050,0039
0038,0039
0038,0038
0038,0038
0038,0035
0038,0037
0037,0038
0038,0037
0038,0037
0040,0039
0038,0039
0038,0036
0040,0040
0039,0037
0042,0037
0037,0037
0037,0038
0037,0038
0038,0039
0037,0038
0037,0048
0037,0038
0049,0040
0039,0038
0037,0037
0038,0039
0038,0037
0038,0038
0039,0038
0037,0036
0039,0037
0039,0037
0039,0038
0038,0039
0035,0036
0036,0036
0039,0037
0037,0038
0037,0037
0037,0037
0036,0037
0037,0038
0037,0036
0039,0038
0037,0038
0035,0036
0049,0039
0039,0037
0037,0036
0037,0039
0035,0042
0037,0036
0039,0036
0040,0038
0034,0036
0037,0037
0037,0034
0037,0037
0037,0036
0034,0037
0038,0038
0035,0036
0037,0034
0036,0035
0039,0033
0037,0035
0040,0036
0035,0035
0036,0035
0036,0037
0037,0030
0032,0037
0029,0033
0035,0035
0035,0037
0036,0031
0035,0036
0035,0036
0035,0036
0035,0035
0036,0035
0034,0035
0034,0030
0035,0034
0037,0036
0035,0034
0036,0034
0035,0035
0041,0034
0034,0035
0036,0034
0033,0033
0035,0038
0036,0034
0033,0033
0035,0035
0034,0035
0033,0034
0035,0032
0033,0034
0037,0034
0033,0034
0035,0034
0034,0034
0035,0029
0035,0033
0033,0034
0035,0034
0037,0028
0035,0034
0038,0033
0033,0034
0033,0026
0033,0032
0034,0036
0033,0033
0033,0033
0034,0034
0033,0035
0033,0033
0034,0035
0033,0034
0035,0035
0035,0033
0032,0032
0033,0032
0041,0033
0034,0034
0034,0033
0036,0035
0035,0033
0032,0040
0035,0034
0033,0034
0034,0034
0034,0033
0033,0034
0033,0034
0034,0034
0031,0043
0034,0035
0033,0034
0035,0039
0033,0034
0037,0035
0034,0035
0033,0033
0033,0034
0035,0034
0034,0034
0033,0041
0035,0034
0040,0034
0036,0034
0035,0036
0035,0034
0036,0029
0034,0035
0034,0041
0034,0035
0034,0034
0035,0031
0032,0035
0034,0033
0033,0034
0036,0034
0032,0032
0033,0034
0032,0035
0033,0034
0034,0034
0035,0034
0034,0035
0034,0034
0035,0039
0034,0034
0035,0036
0035,0035
0036,0035
0035,0035
0035,0034
0036,0036
0035,0042
0036,0035
0032,0036
0035,0035
0037,0037
0035,0035
0037,0040
0035,0035
0038,0035
0037,0035
0035,0032
0035,0035
0035,0031
0036,0036
0035,0035
0036,0034
0035,0037
0035,0035
0037,0039
0034,0034
0035,0036
0035,0036
0036,0031
0034,0034
0036,0033
0036,0034
0035,0035
0035,0035
0033,0034
0035,0033
0036,0035
0032,0037
0035,0036
0036,0037
0035,0036
0035,0037
0037,0037
0037,0027
0032,0034
0035,0036
0035,0035
0034,0035
0035,0036
0036,0035
0036,0034
0034,0035
0036,0035
0038,0035
0033,0034
0036,0035
0035,0034
0036,0037
0037,0035
0035,0036
0035,0035
0033,0035
0035,0035
0036,0036
0037,0036
0037,0033
0035,0036
0035,0035
0035,0035
0037,0035
0031,0035
0036,0035
0035,0034
0036,0035
0035,0036
0037,0035
0035,0035
0031,0035
0035,0033
0035,0035
0035,0035
0033,0033
0035,0035
0026,0034
0034,0034
0034,0037
0034,0032
0035,0034
0034,0034
0040,0036
0034,0034
0034,0035
0035,0032
0033,0034
0034,0032
0034,0033
0034,0033
0031,0033
0033,0033
0033,0033
0034,0034
0035,0036
0034,0032
0027,0035
0034,0033
0041,0030
0033,0031
0034,0034
0033,0035
0033,0033
0034,0033
0033,0035
0034,0033
0034,0034
0035,0034
0042,0032
0034,0034
0030,0033
0033,0034
0032,0033
0034,0036
0035,0026
0033,0033
0034,0034
0036,0031
0036,0034
0032,0034
0032,0034
0035,0032
0036,0029
0035,0034
0035,0034
0033,0033
0041,0028
0031,0034
0034,0032
0032,0034
0034,0033
0033,0036
0034,0034
0035,0035
0035,0035
0035,0034
0046,0036
0032,0034
0034,0036
0034,0033
0042,0031
0033,0034
0031,0033
0033,0035
0038,0034
0033,0033
0034,0037
0032,0034
0033,0035
0035,0033
0034,0035
0036,0033
0035,0033
0035,0035
0033,0034
0034,0035
0035,0034
0034,0031
0033,0036
0034,0034
0034,0033
0034,0034
0034,0033
0033,0032
0034,0031
0035,0033
0031,0042
0033,0033
0040,0031
0030,0034
0031,0032
0033,0034
0028,0031
0033,0031
0032,0032
0032,0032
0030,0035
0033,0033
0033,0036
0034,0033
0033,0033
0032,0032
0032,0032
0032,0032
0032,0033
0030,0032
0027,0031
0033,0033
0030,0030
0033,0032
0033,0033
0032,0032
0032,0030
0031,0031
0033,0033
0032,0032
0032,0033
0032,0032
0032,0032
0033,0032
0034,0031
0032,0032
0032,0038
0034,0033
0032,0034
0032,0034
0033,0031
0033,0032
0035,0033
0032,0033
0032,0031
0032,0031
0032,0032
0031,0030
0031,0032
0030,0031
0031,0032
0032,0032
0032,0032
0031,0032
0033,0030
0032,0032
0029,0032
0031,0031
0031,0032
0033,0033
0031,0029
0034,0033
0032,0033
0033,0033
0034,0038
0032,0031
0035,0033
0033,0032
0036,0033
0034,0036
0033,0032
0034,0033
0034,0032
0032,0033
0031,0034
0033,0032
0035,0032
0031,0034
0034,0034
0033,0032
0032,0037
0033,0034
0034,0041
0034,0034
0035,0034
0036,0034
0038,0034
0033,0036
0036,0040
0035,0035
0035,0035
0035,0034
0035,0033
0034,0035
0035,0034
0036,0034
0032,0035
0035,0034
0036,0036
0036,0036
0036,0036
0034,0034
0033,0033
0036,0035
0034,0036
0036,0036
0034,0034
0036,0036
0036,0035
0040,0036
0036,0036
0036,0037
0035,0036
0038,0037
0037,0036
0038,0037
0039,0038
0036,0037
0036,0033
0038,0036
0037,0037
0034,0037
0038,0037
0036,0036
0037,0037
0038,0036
0037,0036
0037,0036
0037,0037
0036,0035
0037,0036
0036,0036
0035,0038
0037,0037
0036,0035
0037,0037
0038,0038
0036,0037
0037,0036
0035,0034
0036,0035
0034,0035
0034,0037
0036,0036
0035,0036
0036,0036
0038,0035
0035,0035
0035,0034
0035,0036
0036,0036
0036,0035
0030,0036
0036,0037
0037,0036
0035,0036
0034,0036
0035,0036
0036,0035
0036,0036
0035,0036
0037,0036
0036,0034
0035,0036
0034,0034
0036,0036
0036,0034
0036,0036
0034,0034
0034,0034
0036,0035
0034,0034
0036,0034
0036,0038
0035,0035
0033,0035
0034,0035
0036,0036
0032,0035
0035,0035
0035,0034
0034,0034
0037,0033
0036,0035
0038,0037
0036,0036
0039,0036
0036,0034
0037,0036
0039,0038
0036,0036
0037,0035
0037,0035
0036,0036
0038,0034
0037,0036
0037,0037
0035,0034
0035,0035
0035,0036
0034,0036
0036,0036
0036,0038
0036,0036
0037,0038
0039,0035
0039,0037
0037,0037
0035,0036
0038,0038
0037,0037
0037,0040
0038,0036
0038,0037
0038,0036
0036,0036
0037,0037
0036,0036
0035,0037
0037,0038
0038,0037
0034,0043
0037,0035
0036,0036
0036,0036
0037,0037
0038,0037
0037,0038
0036,0036
0037,0038
0037,0036
0036,0037
0036,0036
0039,0036
0037,0037
0036,0035
0035,0036
0035,0036
0037,0034
0036,0035
0038,0036
0036,0035
0035,0035
0036,0036
0036,0036
0036,0035
0037,0036
0035,0036
0036,0036
0036,0036
0036,0037
0036,0036
0036,0035
0034,0035
0034,0035
0036,0035
0035,0037
0036,0036
0036,0034
0036,0035
0037,0036
0037,0036
0038,0037
0037,0035
0036,0035
0037,0035
0034,0034
0036,0036
0037,0036
0035,0035
0035,0036
0035,0037
0037,0035
0036,0036
0036,0036
0036,0036
0037,0037
0037,0036
0035,0037
0037,0036
0037,0038
0037,0037
0038,0037
0036,0037
0035,0035
0037,0036
0036,0037
0036,0036
0037,0035
0036,0036
0037,0037
0036,0035
0036,0035
0037,0036
0036,0036
0036,0037
0036,0036
0035,0035
0034,0037
0037,0037
0036,0035
0037,0042
0039,0036
0036,0034
0038,0036
0037,0037
0038,0036
0037,0037
0038,0037
0037,0036
0035,0034
0037,0036
0037,0036
0037,0037
0037,0037
0037,0036
0038,0036
0036,0036
0048,0036
0037,0036
0036,0037
0037,0037
0038,0037
0037,0038
0036,0036
0037,0037
0038,0037
0038,0037
0037,0037
0038,0038
0038,0037
0037,0037
0038,0038
0038,0037
0037,0037
0039,0039
0039,0037
0037,0038
0037,0037
0037,0037
0035,0037
0036,0036
0034,0037
0037,0037
0037,0038
0037,0037
0036,0035
0037,0037
0035,0036
0036,0037
0037,0036
0037,0036
0037,0036
0038,0038
0037,0037
0036,0038
0038,0036
0037,0037
0037,0036
0036,0036
0037,0036
0037,0037
0037,0036
0035,0036
0036,0037
0035,0036
0032,0037
0036,0037
0037,0037
0036,0038
0036,0037
0035,0036
0037,0038
0037,0036
0037,0036
0037,0034
0038,0035
0037,0036
0038,0036
0036,0037
0036,0034
0036,0036
0042,0030
0038,0037
0037,0036
0037,0035
0036,0035
0036,0036
0038,0038
0037,0037
0034,0036
0037,0036
0038,0036
0036,0037
0037,0037
0036,0035
0037,0037
0038,0037
0037,0035
0036,0036
0037,0037
0037,0035
0038,0037
0037,0038
0037,0036
0037,0037
0037,0035
0038,0037
0038,0036
0037,0036
0037,0036
0036,0036
0034,0036
0035,0034
0037,0036
0035,0034
0037,0037
0036,0036
0036,0038
0037,0035
0036,0036
0037,0036
0037,0036
0035,0035
0035,0036
0037,0035
0034,0034
0036,0036
0035,0035
0033,0034
0036,0036
0035,0036
0036,0034
0036,0034
0034,0036
0034,0034
0034,0034
0035,0035
0036,0035
0036,0035
0036,0035
0036,0036
0036,0036
0036,0037
0037,0035
0035,0035
0036,0036
0036,0036
0036,0035
0036,0035
0036,0036
0036,0035
0036,0034
0036,0035
0034,0036
0037,0036
0038,0035
0037,0036
0037,0036
0033,0036
0036,0036
0037,0036
0027,0037
0036,0036
0035,0035
0033,0036
0037,0034
0037,0037
0037,0037
0036,0035
0036,0037
0036,0036
0037,0035
0036,0035
0036,0035
0036,0035
0035,0036
0036,0037
0033,0045
0036,0032
0036,0038
0036,0037
0036,0036
0036,0035
0036,0035
0034,0036
0037,0037
0037,0036
0037,0037
0035,0037
0037,0038
0038,0037
0037,0038
0039,0038
0036,0038
0039,0040
0038,0038
0038,0036
0040,0038
0038,0038
0039,0038
0038,0038
0037,0038
0041,0039
0039,0038
0041,0038
0036,0039
0038,0037
0039,0039
0039,0039
0039,0039
0039,0037
0039,0038
0039,0038
0039,0039
0039,0040
0041,0037
0039,0040
0040,0039
0041,0040
0041,0038
0041,0042
0040,0040
0040,0040
0041,0041
0041,0039
0040,0040
0040,0040
0039,0040
0041,0040
0040,0040
0041,0041
0040,0039
0037,0041
0040,0039
0039,0040
0039,0048
0039,0039
0039,0039
